,0,1
0,0.0,-0.229
1,0.001,-0.2335
2,0.002,-0.2345
3,0.003,-0.229
4,0.004,-0.227
5,0.005,-0.2325
6,0.006,-0.2365
7,0.007,-0.2335
8,0.008,-0.233
9,0.009000000000000001,-0.2355
10,0.01,-0.2305
11,0.011,-0.228
12,0.012,-0.226
13,0.013000000000000001,-0.23
14,0.014,-0.2325
15,0.015,-0.221
16,0.016,-0.2135
17,0.017,-0.213
18,0.018000000000000002,-0.209
19,0.019,-0.208
20,0.02,-0.2115
21,0.021,-0.214
22,0.022,-0.2165
23,0.023,-0.2035
24,0.024,-0.21
25,0.025,-0.2255
26,0.026000000000000002,-0.223
27,0.027,-0.22
28,0.028,-0.207
29,0.029,-0.2025
30,0.03,-0.2015
31,0.031,-0.199
32,0.032,-0.222
33,0.033,-0.237
34,0.034,-0.2285
35,0.035,-0.2185
36,0.036000000000000004,-0.213
37,0.037,-0.2325
38,0.038,-0.2315
39,0.039,-0.215
40,0.04,-0.2145
41,0.041,-0.2165
42,0.042,-0.2095
43,0.043000000000000003,-0.207
44,0.044,-0.2245
45,0.045,-0.226
46,0.046,-0.2265
47,0.047,-0.219
48,0.048,-0.2195
49,0.049,-0.2385
50,0.05,-0.238
51,0.051000000000000004,-0.2285
52,0.052000000000000005,-0.2255
53,0.053,-0.228
54,0.054,-0.233
55,0.055,-0.2285
56,0.056,-0.22
57,0.057,-0.223
58,0.058,-0.2275
59,0.059000000000000004,-0.226
60,0.06,-0.2265
61,0.061,-0.231
62,0.062,-0.235
63,0.063,-0.2405
64,0.064,-0.244
65,0.065,-0.2425
66,0.066,-0.2455
67,0.067,-0.249
68,0.068,-0.2515
69,0.069,-0.2525
70,0.07,-0.2535
71,0.07100000000000001,-0.243
72,0.07200000000000001,-0.236
73,0.073,-0.262
74,0.074,-0.2745
75,0.075,-0.2665
76,0.076,-0.26
77,0.077,-0.26
78,0.078,-0.261
79,0.079,-0.2585
80,0.08,-0.263
81,0.081,-0.266
82,0.082,-0.2695
83,0.083,-0.275
84,0.084,-0.282
85,0.085,-0.285
86,0.08600000000000001,-0.289
87,0.08700000000000001,-0.284
88,0.088,-0.287
89,0.089,-0.2995
90,0.09,-0.309
91,0.091,-0.297
92,0.092,-0.2715
93,0.093,-0.297
94,0.094,-0.323
95,0.095,-0.324
96,0.096,-0.316
97,0.097,-0.311
98,0.098,-0.322
99,0.099,-0.323
100,0.1,-0.3205
101,0.101,-0.32
102,0.10200000000000001,-0.33
103,0.10300000000000001,-0.3375
104,0.10400000000000001,-0.3425
105,0.105,-0.3625
106,0.106,-0.36
107,0.107,-0.3575
108,0.108,-0.3655
109,0.109,-0.3655
110,0.11,-0.367
111,0.111,-0.362
112,0.112,-0.3685
113,0.113,-0.381
114,0.114,-0.382
115,0.115,-0.386
116,0.116,-0.374
117,0.117,-0.3665
118,0.11800000000000001,-0.3845
119,0.11900000000000001,-0.3885
120,0.12,-0.3945
121,0.121,-0.401
122,0.122,-0.4
123,0.123,-0.405
124,0.124,-0.4135
125,0.125,-0.4185
126,0.126,-0.4145
127,0.127,-0.419
128,0.128,-0.4285
129,0.129,-0.4285
130,0.13,-0.434
131,0.131,-0.441
132,0.132,-0.448
133,0.133,-0.4495
134,0.134,-0.4435
135,0.135,-0.4455
136,0.136,-0.4475
137,0.137,-0.4495
138,0.138,-0.4465
139,0.139,-0.4425
140,0.14,-0.4445
141,0.14100000000000001,-0.4505
142,0.14200000000000002,-0.458
143,0.14300000000000002,-0.4515
144,0.14400000000000002,-0.4475
145,0.145,-0.4515
146,0.146,-0.458
147,0.147,-0.4565
148,0.148,-0.4525
149,0.149,-0.453
150,0.15,-0.4405
151,0.151,-0.44
152,0.152,-0.4415
153,0.153,-0.4465
154,0.154,-0.4375
155,0.155,-0.423
156,0.156,-0.4215
157,0.157,-0.4385
158,0.158,-0.4765
159,0.159,-0.48
160,0.16,-0.461
161,0.161,-0.4385
162,0.162,-0.461
163,0.163,-0.4815
164,0.164,-0.4665
165,0.165,-0.467
166,0.166,-0.4645
167,0.167,-0.459
168,0.168,-0.461
169,0.169,-0.466
170,0.17,-0.4595
171,0.171,-0.4565
172,0.17200000000000001,-0.459
173,0.17300000000000001,-0.4545
174,0.17400000000000002,-0.445
175,0.17500000000000002,-0.455
176,0.176,-0.4575
177,0.177,-0.447
178,0.178,-0.455
179,0.179,-0.451
180,0.18,-0.4495
181,0.181,-0.451
182,0.182,-0.45
183,0.183,-0.4475
184,0.184,-0.4345
185,0.185,-0.4395
186,0.186,-0.4515
187,0.187,-0.4495
188,0.188,-0.4465
189,0.189,-0.4425
190,0.19,-0.4355
191,0.191,-0.4325
192,0.192,-0.433
193,0.193,-0.4375
194,0.194,-0.4315
195,0.195,-0.426
196,0.196,-0.43
197,0.197,-0.423
198,0.198,-0.414
199,0.199,-0.415
200,0.2,-0.421
201,0.201,-0.4225
202,0.202,-0.421
203,0.203,-0.4215
204,0.20400000000000001,-0.422
205,0.20500000000000002,-0.42
206,0.20600000000000002,-0.4175
207,0.20700000000000002,-0.4075
208,0.20800000000000002,-0.396
209,0.209,-0.3885
210,0.21,-0.391
211,0.211,-0.406
212,0.212,-0.4
213,0.213,-0.3955
214,0.214,-0.3805
215,0.215,-0.36
216,0.216,-0.377
217,0.217,-0.3905
218,0.218,-0.3865
219,0.219,-0.376
220,0.22,-0.375
221,0.221,-0.375
222,0.222,-0.3765
223,0.223,-0.3785
224,0.224,-0.3735
225,0.225,-0.377
226,0.226,-0.379
227,0.227,-0.376
228,0.228,-0.3745
229,0.229,-0.3745
230,0.23,-0.368
231,0.231,-0.3625
232,0.232,-0.362
233,0.233,-0.362
234,0.234,-0.3455
235,0.23500000000000001,-0.3345
236,0.23600000000000002,-0.3485
237,0.23700000000000002,-0.3425
238,0.23800000000000002,-0.332
239,0.23900000000000002,-0.337
240,0.24,-0.344
241,0.241,-0.3475
242,0.242,-0.3525
243,0.243,-0.3475
244,0.244,-0.341
245,0.245,-0.3435
246,0.246,-0.3405
247,0.247,-0.3365
248,0.248,-0.3215
249,0.249,-0.3175
250,0.25,-0.3265
251,0.251,-0.3405
252,0.252,-0.3475
253,0.253,-0.3345
254,0.254,-0.327
255,0.255,-0.33
256,0.256,-0.3375
257,0.257,-0.3415
258,0.258,-0.3375
259,0.259,-0.33
260,0.26,-0.3315
261,0.261,-0.3365
262,0.262,-0.3375
263,0.263,-0.337
264,0.264,-0.3345
265,0.265,-0.3325
266,0.266,-0.3305
267,0.267,-0.3275
268,0.268,-0.33
269,0.269,-0.324
270,0.27,-0.327
271,0.271,-0.338
272,0.272,-0.3355
273,0.273,-0.335
274,0.274,-0.3335
275,0.275,-0.329
276,0.276,-0.3295
277,0.277,-0.3325
278,0.278,-0.3285
279,0.279,-0.3245
280,0.28,-0.3305
281,0.281,-0.3335
282,0.28200000000000003,-0.3325
283,0.28300000000000003,-0.3335
284,0.28400000000000003,-0.338
285,0.28500000000000003,-0.3385
286,0.28600000000000003,-0.342
287,0.28700000000000003,-0.3375
288,0.28800000000000003,-0.3295
289,0.289,-0.335
290,0.29,-0.3365
291,0.291,-0.3325
292,0.292,-0.3345
293,0.293,-0.3385
294,0.294,-0.334
295,0.295,-0.3275
296,0.296,-0.3285
297,0.297,-0.3305
298,0.298,-0.329
299,0.299,-0.3265
300,0.3,-0.3295
301,0.301,-0.333
302,0.302,-0.333
303,0.303,-0.332
304,0.304,-0.336
305,0.305,-0.336
306,0.306,-0.33
307,0.307,-0.3365
308,0.308,-0.346
309,0.309,-0.3415
310,0.31,-0.331
311,0.311,-0.3275
312,0.312,-0.34
313,0.313,-0.3445
314,0.314,-0.3375
315,0.315,-0.337
316,0.316,-0.333
317,0.317,-0.331
318,0.318,-0.3285
319,0.319,-0.327
320,0.32,-0.323
321,0.321,-0.318
322,0.322,-0.326
323,0.323,-0.3335
324,0.324,-0.33
325,0.325,-0.3275
326,0.326,-0.334
327,0.327,-0.334
328,0.328,-0.335
329,0.329,-0.3315
330,0.33,-0.325
331,0.331,-0.332
332,0.332,-0.337
333,0.333,-0.3175
334,0.334,-0.301
335,0.335,-0.3185
336,0.336,-0.3025
337,0.337,-0.2945
338,0.338,-0.32
339,0.339,-0.307
340,0.34,-0.306
341,0.341,-0.313
342,0.342,-0.3065
343,0.343,-0.305
344,0.34400000000000003,-0.3055
345,0.34500000000000003,-0.3055
346,0.34600000000000003,-0.304
347,0.34700000000000003,-0.3105
348,0.34800000000000003,-0.3115
349,0.34900000000000003,-0.3015
350,0.35000000000000003,-0.304
351,0.35100000000000003,-0.3065
352,0.352,-0.3005
353,0.353,-0.303
354,0.354,-0.299
355,0.355,-0.2935
356,0.356,-0.2965
357,0.357,-0.287
358,0.358,-0.285
359,0.359,-0.2855
360,0.36,-0.281
361,0.361,-0.2935
362,0.362,-0.288
363,0.363,-0.274
364,0.364,-0.2785
365,0.365,-0.2835
366,0.366,-0.284
367,0.367,-0.285
368,0.368,-0.2855
369,0.369,-0.2825
370,0.37,-0.273
371,0.371,-0.269
372,0.372,-0.2695
373,0.373,-0.2665
374,0.374,-0.2625
375,0.375,-0.2615
376,0.376,-0.264
377,0.377,-0.25
378,0.378,-0.2455
379,0.379,-0.263
380,0.38,-0.2705
381,0.381,-0.274
382,0.382,-0.2785
383,0.383,-0.273
384,0.384,-0.2695
385,0.385,-0.2705
386,0.386,-0.2715
387,0.387,-0.2675
388,0.388,-0.2625
389,0.389,-0.251
390,0.39,-0.2395
391,0.391,-0.2495
392,0.392,-0.2625
393,0.393,-0.27
394,0.394,-0.2665
395,0.395,-0.2525
396,0.396,-0.2525
397,0.397,-0.257
398,0.398,-0.244
399,0.399,-0.244
400,0.4,-0.255
401,0.401,-0.2395
402,0.402,-0.23
403,0.403,-0.2555
404,0.404,-0.267
405,0.405,-0.244
406,0.406,-0.2335
407,0.40700000000000003,-0.2435
408,0.40800000000000003,-0.2475
409,0.40900000000000003,-0.245
410,0.41000000000000003,-0.237
411,0.41100000000000003,-0.234
412,0.41200000000000003,-0.237
413,0.41300000000000003,-0.236
414,0.41400000000000003,-0.234
415,0.41500000000000004,-0.2285
416,0.41600000000000004,-0.2245
417,0.417,-0.2195
418,0.418,-0.217
419,0.419,-0.222
420,0.42,-0.2135
421,0.421,-0.2105
422,0.422,-0.2225
423,0.423,-0.2215
424,0.424,-0.212
425,0.425,-0.2175
426,0.426,-0.229
427,0.427,-0.226
428,0.428,-0.224
429,0.429,-0.2265
430,0.43,-0.2205
431,0.431,-0.214
432,0.432,-0.2045
433,0.433,-0.1945
434,0.434,-0.1975
435,0.435,-0.199
436,0.436,-0.2
437,0.437,-0.2015
438,0.438,-0.1885
439,0.439,-0.1875
440,0.44,-0.202
441,0.441,-0.1965
442,0.442,-0.1885
443,0.443,-0.1935
444,0.444,-0.194
445,0.445,-0.194
446,0.446,-0.1875
447,0.447,-0.1825
448,0.448,-0.1845
449,0.449,-0.179
450,0.45,-0.1715
451,0.451,-0.1685
452,0.452,-0.1665
453,0.453,-0.1435
454,0.454,-0.141
455,0.455,-0.158
456,0.456,-0.155
457,0.457,-0.1485
458,0.458,-0.141
459,0.459,-0.14
460,0.46,-0.1335
461,0.461,-0.1305
462,0.462,-0.137
463,0.463,-0.128
464,0.464,-0.119
465,0.465,-0.1245
466,0.466,-0.117
467,0.467,-0.114
468,0.468,-0.1185
469,0.46900000000000003,-0.1095
470,0.47000000000000003,-0.0975
471,0.47100000000000003,-0.095
472,0.47200000000000003,-0.1
473,0.47300000000000003,-0.095
474,0.47400000000000003,-0.0875
475,0.47500000000000003,-0.0855
476,0.47600000000000003,-0.084
477,0.47700000000000004,-0.081
478,0.47800000000000004,-0.073
479,0.47900000000000004,-0.0735
480,0.48,-0.076
481,0.481,-0.085
482,0.482,-0.097
483,0.483,-0.085
484,0.484,-0.1085
485,0.485,-0.1285
486,0.486,-0.101
487,0.487,-0.095
488,0.488,-0.1015
489,0.489,-0.101
490,0.49,-0.0995
491,0.491,-0.0905
492,0.492,-0.082
493,0.493,-0.08
494,0.494,-0.0735
495,0.495,-0.077
496,0.496,-0.0925
497,0.497,-0.086
498,0.498,-0.0785
499,0.499,-0.1
500,0.5,-0.1015
501,0.501,-0.0915
502,0.502,-0.094
503,0.503,-0.103
504,0.504,-0.1135
505,0.505,-0.111
506,0.506,-0.114
507,0.507,-0.1035
508,0.508,-0.096
509,0.509,-0.089
510,0.51,-0.085
511,0.511,-0.0945
512,0.512,-0.094
513,0.513,-0.0965
514,0.514,-0.0975
515,0.515,-0.0945
516,0.516,-0.0975
517,0.517,-0.1095
518,0.518,-0.1075
519,0.519,-0.1065
520,0.52,-0.1075
521,0.521,-0.104
522,0.522,-0.115
523,0.523,-0.1175
524,0.524,-0.1155
525,0.525,-0.1245
526,0.526,-0.132
527,0.527,-0.136
528,0.528,-0.1425
529,0.529,-0.1315
530,0.53,-0.134
531,0.531,-0.1495
532,0.532,-0.156
533,0.533,-0.1625
534,0.534,-0.1655
535,0.535,-0.1665
536,0.536,-0.1715
537,0.537,-0.1795
538,0.538,-0.1795
539,0.539,-0.1815
540,0.54,-0.1895
541,0.541,-0.199
542,0.542,-0.197
543,0.543,-0.2005
544,0.544,-0.2095
545,0.545,-0.213
546,0.546,-0.2175
547,0.547,-0.2215
548,0.548,-0.2315
549,0.549,-0.236
550,0.55,-0.233
551,0.551,-0.2295
552,0.552,-0.2225
553,0.553,-0.221
554,0.554,-0.234
555,0.555,-0.2365
556,0.556,-0.232
557,0.557,-0.2295
558,0.558,-0.226
559,0.559,-0.2305
560,0.56,-0.2295
561,0.561,-0.233
562,0.562,-0.2275
563,0.5630000000000001,-0.22
564,0.5640000000000001,-0.219
565,0.5650000000000001,-0.2215
566,0.5660000000000001,-0.238
567,0.5670000000000001,-0.237
568,0.5680000000000001,-0.2265
569,0.5690000000000001,-0.216
570,0.5700000000000001,-0.215
571,0.5710000000000001,-0.2255
572,0.5720000000000001,-0.231
573,0.5730000000000001,-0.2355
574,0.5740000000000001,-0.238
575,0.5750000000000001,-0.238
576,0.5760000000000001,-0.2315
577,0.577,-0.2225
578,0.578,-0.2125
579,0.579,-0.218
580,0.58,-0.228
581,0.581,-0.232
582,0.582,-0.23
583,0.583,-0.221
584,0.584,-0.2315
585,0.585,-0.2465
586,0.586,-0.24
587,0.587,-0.2345
588,0.588,-0.233
589,0.589,-0.2305
590,0.59,-0.2305
591,0.591,-0.223
592,0.592,-0.223
593,0.593,-0.229
594,0.594,-0.2205
595,0.595,-0.216
596,0.596,-0.222
597,0.597,-0.216
598,0.598,-0.2095
599,0.599,-0.2165
600,0.6,-0.224
601,0.601,-0.2375
602,0.602,-0.2485
603,0.603,-0.2565
604,0.604,-0.275
605,0.605,-0.297
606,0.606,-0.3205
607,0.607,-0.34
608,0.608,-0.359
609,0.609,-0.3755
610,0.61,-0.3905
611,0.611,-0.402
612,0.612,-0.417
613,0.613,-0.4275
614,0.614,-0.432
615,0.615,-0.446
616,0.616,-0.4605
617,0.617,-0.4695
618,0.618,-0.465
619,0.619,-0.477
620,0.62,-0.489
621,0.621,-0.486
622,0.622,-0.487
623,0.623,-0.4835
624,0.624,-0.4865
625,0.625,-0.4905
626,0.626,-0.484
627,0.627,-0.4785
628,0.628,-0.472
629,0.629,-0.4555
630,0.63,-0.44
631,0.631,-0.4265
632,0.632,-0.4065
633,0.633,-0.392
634,0.634,-0.3885
635,0.635,-0.379
636,0.636,-0.3635
637,0.637,-0.3425
638,0.638,-0.32
639,0.639,-0.299
640,0.64,-0.2765
641,0.641,-0.2655
642,0.642,-0.2685
643,0.643,-0.2745
644,0.644,-0.28
645,0.645,-0.284
646,0.646,-0.294
647,0.647,-0.3155
648,0.648,-0.3555
649,0.649,-0.3955
650,0.65,-0.433
651,0.651,-0.4665
652,0.652,-0.4745
653,0.653,-0.4875
654,0.654,-0.508
655,0.655,-0.5365
656,0.656,-0.5685
657,0.657,-0.589
658,0.658,-0.629
659,0.659,-0.667
660,0.66,-0.674
661,0.661,-0.669
662,0.662,-0.6845
663,0.663,-0.6775
664,0.664,-0.659
665,0.665,-0.6705
666,0.666,-0.6615
667,0.667,-0.6605
668,0.668,-0.647
669,0.669,-0.6215
670,0.67,-0.5955
671,0.671,-0.585
672,0.672,-0.58
673,0.673,-0.5545
674,0.674,-0.5365
675,0.675,-0.506
676,0.676,-0.5115
677,0.677,-0.502
678,0.678,-0.4855
679,0.679,-0.4865
680,0.68,-0.485
681,0.681,-0.5075
682,0.682,-0.522
683,0.683,-0.5215
684,0.684,-0.511
685,0.685,-0.4925
686,0.686,-0.481
687,0.687,-0.479
688,0.6880000000000001,-0.4655
689,0.6890000000000001,-0.4495
690,0.6900000000000001,-0.434
691,0.6910000000000001,-0.4305
692,0.6920000000000001,-0.4305
693,0.6930000000000001,-0.4215
694,0.6940000000000001,-0.414
695,0.6950000000000001,-0.4035
696,0.6960000000000001,-0.4
697,0.6970000000000001,-0.404
698,0.6980000000000001,-0.3985
699,0.6990000000000001,-0.3835
700,0.7000000000000001,-0.3995
701,0.7010000000000001,-0.432
702,0.7020000000000001,-0.4345
703,0.7030000000000001,-0.424
704,0.704,-0.409
705,0.705,-0.4075
706,0.706,-0.4095
707,0.707,-0.401
708,0.708,-0.39
709,0.709,-0.3635
710,0.71,-0.343
711,0.711,-0.331
712,0.712,-0.324
713,0.713,-0.313
714,0.714,-0.291
715,0.715,-0.2695
716,0.716,-0.254
717,0.717,-0.2385
718,0.718,-0.2215
719,0.719,-0.2205
720,0.72,-0.212
721,0.721,-0.2015
722,0.722,-0.197
723,0.723,-0.188
724,0.724,-0.1825
725,0.725,-0.176
726,0.726,-0.166
727,0.727,-0.1705
728,0.728,-0.18
729,0.729,-0.157
730,0.73,-0.157
731,0.731,-0.179
732,0.732,-0.1685
733,0.733,-0.159
734,0.734,-0.1635
735,0.735,-0.1685
736,0.736,-0.175
737,0.737,-0.1675
738,0.738,-0.1625
739,0.739,-0.1705
740,0.74,-0.1645
741,0.741,-0.1585
742,0.742,-0.1655
743,0.743,-0.1725
744,0.744,-0.1715
745,0.745,-0.167
746,0.746,-0.1655
747,0.747,-0.1595
748,0.748,-0.1595
749,0.749,-0.164
750,0.75,-0.161
751,0.751,-0.1655
752,0.752,-0.165
753,0.753,-0.1565
754,0.754,-0.1535
755,0.755,-0.1505
756,0.756,-0.163
757,0.757,-0.158
758,0.758,-0.138
759,0.759,-0.1675
760,0.76,-0.1875
761,0.761,-0.177
762,0.762,-0.1735
763,0.763,-0.1715
764,0.764,-0.176
765,0.765,-0.1745
766,0.766,-0.1735
767,0.767,-0.1755
768,0.768,-0.177
769,0.769,-0.173
770,0.77,-0.17
771,0.771,-0.1695
772,0.772,-0.167
773,0.773,-0.1705
774,0.774,-0.169
775,0.775,-0.164
776,0.776,-0.161
777,0.777,-0.158
778,0.778,-0.1595
779,0.779,-0.163
780,0.78,-0.161
781,0.781,-0.163
782,0.782,-0.164
783,0.783,-0.1655
784,0.784,-0.1725
785,0.785,-0.172
786,0.786,-0.1615
787,0.787,-0.159
788,0.788,-0.174
789,0.789,-0.164
790,0.79,-0.1625
791,0.791,-0.166
792,0.792,-0.154
793,0.793,-0.1715
794,0.794,-0.166
795,0.795,-0.1585
796,0.796,-0.1615
797,0.797,-0.1585
798,0.798,-0.1605
799,0.799,-0.1605
800,0.8,-0.1615
801,0.801,-0.1635
802,0.802,-0.166
803,0.803,-0.165
804,0.804,-0.1725
805,0.805,-0.1815
806,0.806,-0.1805
807,0.807,-0.18
808,0.808,-0.18
809,0.809,-0.1755
810,0.81,-0.176
811,0.811,-0.176
812,0.812,-0.1715
813,0.8130000000000001,-0.1735
814,0.8140000000000001,-0.175
815,0.8150000000000001,-0.1745
816,0.8160000000000001,-0.18
817,0.8170000000000001,-0.1805
818,0.8180000000000001,-0.18
819,0.8190000000000001,-0.182
820,0.8200000000000001,-0.1835
821,0.8210000000000001,-0.1875
822,0.8220000000000001,-0.193
823,0.8230000000000001,-0.1915
824,0.8240000000000001,-0.1945
825,0.8250000000000001,-0.2005
826,0.8260000000000001,-0.198
827,0.8270000000000001,-0.1965
828,0.8280000000000001,-0.2055
829,0.8290000000000001,-0.2095
830,0.8300000000000001,-0.21
831,0.8310000000000001,-0.2115
832,0.8320000000000001,-0.191
833,0.833,-0.1905
834,0.834,-0.2075
835,0.835,-0.2235
836,0.836,-0.233
837,0.837,-0.23
838,0.838,-0.231
839,0.839,-0.226
840,0.84,-0.2265
841,0.841,-0.2235
842,0.842,-0.232
843,0.843,-0.2535
844,0.844,-0.245
845,0.845,-0.239
846,0.846,-0.246
847,0.847,-0.2555
848,0.848,-0.272
849,0.849,-0.2675
850,0.85,-0.259
851,0.851,-0.2625
852,0.852,-0.265
853,0.853,-0.265
854,0.854,-0.2635
855,0.855,-0.2615
856,0.856,-0.2605
857,0.857,-0.265
858,0.858,-0.273
859,0.859,-0.2735
860,0.86,-0.277
861,0.861,-0.283
862,0.862,-0.286
863,0.863,-0.285
864,0.864,-0.2885
865,0.865,-0.3135
866,0.866,-0.3205
867,0.867,-0.317
868,0.868,-0.3185
869,0.869,-0.314
870,0.87,-0.3145
871,0.871,-0.316
872,0.872,-0.319
873,0.873,-0.316
874,0.874,-0.321
875,0.875,-0.3245
876,0.876,-0.326
877,0.877,-0.332
878,0.878,-0.3325
879,0.879,-0.342
880,0.88,-0.3495
881,0.881,-0.347
882,0.882,-0.3395
883,0.883,-0.3265
884,0.884,-0.3285
885,0.885,-0.3505
886,0.886,-0.3595
887,0.887,-0.3695
888,0.888,-0.3735
889,0.889,-0.366
890,0.89,-0.3665
891,0.891,-0.3625
892,0.892,-0.3615
893,0.893,-0.3625
894,0.894,-0.361
895,0.895,-0.361
896,0.896,-0.365
897,0.897,-0.3635
898,0.898,-0.361
899,0.899,-0.3655
900,0.9,-0.364
901,0.901,-0.3615
902,0.902,-0.3555
903,0.903,-0.36
904,0.904,-0.3805
905,0.905,-0.39
906,0.906,-0.388
907,0.907,-0.3875
908,0.908,-0.387
909,0.909,-0.384
910,0.91,-0.386
911,0.911,-0.382
912,0.912,-0.38
913,0.913,-0.3795
914,0.914,-0.379
915,0.915,-0.38
916,0.916,-0.3755
917,0.917,-0.3735
918,0.918,-0.369
919,0.919,-0.367
920,0.92,-0.37
921,0.921,-0.3715
922,0.922,-0.3545
923,0.923,-0.3445
924,0.924,-0.3695
925,0.925,-0.3805
926,0.926,-0.376
927,0.927,-0.3885
928,0.928,-0.3875
929,0.929,-0.3765
930,0.93,-0.365
931,0.931,-0.361
932,0.932,-0.3615
933,0.933,-0.361
934,0.934,-0.3725
935,0.935,-0.3645
936,0.936,-0.361
937,0.937,-0.3565
938,0.9380000000000001,-0.34
939,0.9390000000000001,-0.334
940,0.9400000000000001,-0.3415
941,0.9410000000000001,-0.3525
942,0.9420000000000001,-0.3515
943,0.9430000000000001,-0.3475
944,0.9440000000000001,-0.345
945,0.9450000000000001,-0.343
946,0.9460000000000001,-0.341
947,0.9470000000000001,-0.3395
948,0.9480000000000001,-0.332
949,0.9490000000000001,-0.332
950,0.9500000000000001,-0.337
951,0.9510000000000001,-0.334
952,0.9520000000000001,-0.3305
953,0.9530000000000001,-0.325
954,0.9540000000000001,-0.3315
955,0.9550000000000001,-0.3355
956,0.9560000000000001,-0.3305
957,0.9570000000000001,-0.328
958,0.9580000000000001,-0.322
959,0.9590000000000001,-0.3215
960,0.96,-0.3185
961,0.961,-0.3175
962,0.962,-0.3145
963,0.963,-0.313
964,0.964,-0.3195
965,0.965,-0.3125
966,0.966,-0.314
967,0.967,-0.33
968,0.968,-0.3215
969,0.969,-0.3095
970,0.97,-0.306
971,0.971,-0.3
972,0.972,-0.2975
973,0.973,-0.289
974,0.974,-0.2965
975,0.975,-0.3085
976,0.976,-0.2925
977,0.977,-0.2775
978,0.978,-0.27
979,0.979,-0.2565
980,0.98,-0.288
981,0.981,-0.3105
982,0.982,-0.297
983,0.983,-0.2825
984,0.984,-0.266
985,0.985,-0.2885
986,0.986,-0.27
987,0.987,-0.253
988,0.988,-0.2875
989,0.989,-0.2925
990,0.99,-0.281
991,0.991,-0.2745
992,0.992,-0.269
993,0.993,-0.269
994,0.994,-0.2655
995,0.995,-0.2575
996,0.996,-0.2575
997,0.997,-0.2535
998,0.998,-0.257
999,0.999,-0.257
1000,1.0,-0.2565
1001,1.0010000000000001,-0.261
1002,1.002,-0.2505
1003,1.0030000000000001,-0.25
1004,1.004,-0.2515
1005,1.0050000000000001,-0.2565
1006,1.006,-0.2595
1007,1.0070000000000001,-0.259
1008,1.008,-0.26
1009,1.0090000000000001,-0.2525
1010,1.01,-0.2505
1011,1.0110000000000001,-0.2505
1012,1.012,-0.246
1013,1.0130000000000001,-0.249
1014,1.014,-0.2505
1015,1.0150000000000001,-0.247
1016,1.016,-0.248
1017,1.0170000000000001,-0.2425
1018,1.018,-0.2395
1019,1.0190000000000001,-0.2415
1020,1.02,-0.2415
1021,1.0210000000000001,-0.2435
1022,1.022,-0.2415
1023,1.0230000000000001,-0.245
1024,1.024,-0.249
1025,1.025,-0.247
1026,1.026,-0.2485
1027,1.027,-0.256
1028,1.028,-0.265
1029,1.029,-0.2535
1030,1.03,-0.242
1031,1.031,-0.246
1032,1.032,-0.239
1033,1.033,-0.2445
1034,1.034,-0.2415
1035,1.035,-0.2335
1036,1.036,-0.233
1037,1.037,-0.2245
1038,1.038,-0.23
1039,1.039,-0.241
1040,1.04,-0.2345
1041,1.041,-0.228
1042,1.042,-0.2345
1043,1.043,-0.2335
1044,1.044,-0.2435
1045,1.045,-0.2515
1046,1.046,-0.243
1047,1.047,-0.2365
1048,1.048,-0.2355
1049,1.049,-0.2295
1050,1.05,-0.229
1051,1.051,-0.24
1052,1.052,-0.234
1053,1.053,-0.228
1054,1.054,-0.2265
1055,1.055,-0.2315
1056,1.056,-0.2325
1057,1.057,-0.2215
1058,1.058,-0.2205
1059,1.059,-0.226
1060,1.06,-0.2345
1061,1.061,-0.2325
1062,1.062,-0.231
1063,1.063,-0.2265
1064,1.064,-0.2155
1065,1.065,-0.2235
1066,1.066,-0.2305
1067,1.067,-0.2305
1068,1.068,-0.2325
1069,1.069,-0.2325
1070,1.07,-0.23
1071,1.071,-0.231
1072,1.072,-0.231
1073,1.073,-0.2285
1074,1.074,-0.228
1075,1.075,-0.228
1076,1.076,-0.2265
1077,1.077,-0.2115
1078,1.078,-0.21
1079,1.079,-0.2215
1080,1.08,-0.2245
1081,1.081,-0.2225
1082,1.082,-0.2215
1083,1.083,-0.2345
1084,1.084,-0.234
1085,1.085,-0.2255
1086,1.086,-0.2225
1087,1.087,-0.2105
1088,1.088,-0.214
1089,1.089,-0.2235
1090,1.09,-0.206
1091,1.091,-0.215
1092,1.092,-0.2365
1093,1.093,-0.2325
1094,1.094,-0.2195
1095,1.095,-0.201
1096,1.096,-0.2115
1097,1.097,-0.214
1098,1.098,-0.2175
1099,1.099,-0.2205
1100,1.1,-0.221
1101,1.101,-0.2365
1102,1.102,-0.2165
1103,1.103,-0.22
1104,1.104,-0.233
1105,1.105,-0.22
1106,1.106,-0.2175
1107,1.107,-0.2155
1108,1.108,-0.2175
1109,1.109,-0.2145
1110,1.11,-0.2115
1111,1.111,-0.211
1112,1.112,-0.205
1113,1.113,-0.2045
1114,1.114,-0.2045
1115,1.115,-0.2045
1116,1.116,-0.204
1117,1.117,-0.199
1118,1.118,-0.1985
1119,1.119,-0.201
1120,1.12,-0.203
1121,1.121,-0.2015
1122,1.122,-0.199
1123,1.123,-0.1875
1124,1.124,-0.1875
1125,1.125,-0.2025
1126,1.1260000000000001,-0.2045
1127,1.127,-0.2035
1128,1.1280000000000001,-0.201
1129,1.129,-0.199
1130,1.1300000000000001,-0.2025
1131,1.131,-0.1835
1132,1.1320000000000001,-0.1585
1133,1.133,-0.1685
1134,1.1340000000000001,-0.1835
1135,1.135,-0.1835
1136,1.1360000000000001,-0.1825
1137,1.137,-0.1765
1138,1.1380000000000001,-0.175
1139,1.139,-0.176
1140,1.1400000000000001,-0.174
1141,1.141,-0.175
1142,1.1420000000000001,-0.172
1143,1.143,-0.1735
1144,1.1440000000000001,-0.17
1145,1.145,-0.164
1146,1.1460000000000001,-0.168
1147,1.147,-0.1775
1148,1.1480000000000001,-0.183
1149,1.149,-0.1825
1150,1.1500000000000001,-0.1785
1151,1.151,-0.1725
1152,1.1520000000000001,-0.171
1153,1.153,-0.1715
1154,1.154,-0.168
1155,1.155,-0.1635
1156,1.156,-0.1625
1157,1.157,-0.1635
1158,1.158,-0.1645
1159,1.159,-0.1655
1160,1.16,-0.168
1161,1.161,-0.1685
1162,1.162,-0.167
1163,1.163,-0.1625
1164,1.164,-0.1575
1165,1.165,-0.1645
1166,1.166,-0.1715
1167,1.167,-0.172
1168,1.168,-0.166
1169,1.169,-0.161
1170,1.17,-0.157
1171,1.171,-0.152
1172,1.172,-0.152
1173,1.173,-0.154
1174,1.174,-0.1555
1175,1.175,-0.147
1176,1.176,-0.1405
1177,1.177,-0.1285
1178,1.178,-0.129
1179,1.179,-0.1395
1180,1.18,-0.1405
1181,1.181,-0.1375
1182,1.182,-0.1305
1183,1.183,-0.1475
1184,1.184,-0.1605
1185,1.185,-0.159
1186,1.186,-0.1505
1187,1.187,-0.1425
1188,1.188,-0.1315
1189,1.189,-0.13
1190,1.19,-0.14
1191,1.191,-0.1265
1192,1.192,-0.1205
1193,1.193,-0.12
1194,1.194,-0.1135
1195,1.195,-0.108
1196,1.196,-0.1065
1197,1.197,-0.103
1198,1.198,-0.0975
1199,1.199,-0.098
1200,1.2,-0.0975
1201,1.201,-0.0935
1202,1.202,-0.0895
1203,1.203,-0.0845
1204,1.204,-0.0775
1205,1.205,-0.076
1206,1.206,-0.07
1207,1.207,-0.072
1208,1.208,-0.0755
1209,1.209,-0.0665
1210,1.21,-0.0725
1211,1.211,-0.058
1212,1.212,-0.043
1213,1.213,-0.067
1214,1.214,-0.0685
1215,1.215,-0.05
1216,1.216,-0.04
1217,1.217,-0.034
1218,1.218,-0.0325
1219,1.219,-0.036
1220,1.22,-0.049
1221,1.221,-0.0485
1222,1.222,-0.043
1223,1.223,-0.041
1224,1.224,-0.041
1225,1.225,-0.0505
1226,1.226,-0.0545
1227,1.227,-0.064
1228,1.228,-0.067
1229,1.229,-0.0595
1230,1.23,-0.069
1231,1.231,-0.064
1232,1.232,-0.053
1233,1.233,-0.055
1234,1.234,-0.047
1235,1.235,-0.0415
1236,1.236,-0.0375
1237,1.237,-0.0305
1238,1.238,-0.0285
1239,1.239,-0.035
1240,1.24,-0.0445
1241,1.241,-0.047
1242,1.242,-0.0495
1243,1.243,-0.0495
1244,1.244,-0.0485
1245,1.245,-0.0465
1246,1.246,-0.042
1247,1.247,-0.042
1248,1.248,-0.049
1249,1.249,-0.052
1250,1.25,-0.044
1251,1.2510000000000001,-0.0365
1252,1.252,-0.0335
1253,1.2530000000000001,-0.031
1254,1.254,-0.03
1255,1.2550000000000001,-0.0345
1256,1.256,-0.0355
1257,1.2570000000000001,-0.033
1258,1.258,-0.0435
1259,1.2590000000000001,-0.0495
1260,1.26,-0.052
1261,1.2610000000000001,-0.0475
1262,1.262,-0.0455
1263,1.2630000000000001,-0.0535
1264,1.264,-0.053
1265,1.2650000000000001,-0.056
1266,1.266,-0.0555
1267,1.2670000000000001,-0.0525
1268,1.268,-0.07
1269,1.2690000000000001,-0.0675
1270,1.27,-0.046
1271,1.2710000000000001,-0.0745
1272,1.272,-0.097
1273,1.2730000000000001,-0.094
1274,1.274,-0.1055
1275,1.2750000000000001,-0.1155
1276,1.276,-0.121
1277,1.2770000000000001,-0.126
1278,1.278,-0.1335
1279,1.2790000000000001,-0.1405
1280,1.28,-0.1465
1281,1.281,-0.1475
1282,1.282,-0.1435
1283,1.283,-0.15
1284,1.284,-0.1435
1285,1.285,-0.132
1286,1.286,-0.154
1287,1.287,-0.181
1288,1.288,-0.1805
1289,1.289,-0.175
1290,1.29,-0.176
1291,1.291,-0.1815
1292,1.292,-0.1855
1293,1.293,-0.1845
1294,1.294,-0.187
1295,1.295,-0.1915
1296,1.296,-0.206
1297,1.297,-0.194
1298,1.298,-0.183
1299,1.299,-0.2025
1300,1.3,-0.202
1301,1.301,-0.195
1302,1.302,-0.1925
1303,1.303,-0.202
1304,1.304,-0.2125
1305,1.305,-0.202
1306,1.306,-0.1955
1307,1.307,-0.1925
1308,1.308,-0.19
1309,1.309,-0.197
1310,1.31,-0.1995
1311,1.311,-0.1975
1312,1.312,-0.1965
1313,1.313,-0.189
1314,1.314,-0.191
1315,1.315,-0.1955
1316,1.316,-0.1895
1317,1.317,-0.1825
1318,1.318,-0.1835
1319,1.319,-0.194
1320,1.32,-0.1945
1321,1.321,-0.1935
1322,1.322,-0.196
1323,1.323,-0.194
1324,1.324,-0.192
1325,1.325,-0.185
1326,1.326,-0.187
1327,1.327,-0.176
1328,1.328,-0.174
1329,1.329,-0.182
1330,1.33,-0.168
1331,1.331,-0.1865
1332,1.332,-0.2075
1333,1.333,-0.1945
1334,1.334,-0.1685
1335,1.335,-0.1615
1336,1.336,-0.1705
1337,1.337,-0.1725
1338,1.338,-0.1695
1339,1.339,-0.176
1340,1.34,-0.1925
1341,1.341,-0.1885
1342,1.342,-0.1825
1343,1.343,-0.1855
1344,1.344,-0.1925
1345,1.345,-0.198
1346,1.346,-0.2065
1347,1.347,-0.223
1348,1.348,-0.235
1349,1.349,-0.2515
1350,1.35,-0.273
1351,1.351,-0.2945
1352,1.352,-0.316
1353,1.353,-0.3375
1354,1.354,-0.3505
1355,1.355,-0.3595
1356,1.356,-0.3705
1357,1.357,-0.379
1358,1.358,-0.393
1359,1.359,-0.409
1360,1.36,-0.421
1361,1.361,-0.426
1362,1.362,-0.4325
1363,1.363,-0.45
1364,1.364,-0.4615
1365,1.365,-0.4625
1366,1.366,-0.4605
1367,1.367,-0.4615
1368,1.368,-0.4685
1369,1.369,-0.4685
1370,1.37,-0.467
1371,1.371,-0.468
1372,1.372,-0.4625
1373,1.373,-0.451
1374,1.374,-0.4325
1375,1.375,-0.4245
1376,1.3760000000000001,-0.4015
1377,1.377,-0.3795
1378,1.3780000000000001,-0.376
1379,1.379,-0.353
1380,1.3800000000000001,-0.356
1381,1.381,-0.3575
1382,1.3820000000000001,-0.3315
1383,1.383,-0.3155
1384,1.3840000000000001,-0.2915
1385,1.385,-0.2655
1386,1.3860000000000001,-0.264
1387,1.387,-0.2665
1388,1.3880000000000001,-0.2585
1389,1.389,-0.2725
1390,1.3900000000000001,-0.2995
1391,1.391,-0.3055
1392,1.3920000000000001,-0.317
1393,1.393,-0.3785
1394,1.3940000000000001,-0.4385
1395,1.395,-0.4575
1396,1.3960000000000001,-0.462
1397,1.397,-0.474
1398,1.3980000000000001,-0.5055
1399,1.399,-0.539
1400,1.4000000000000001,-0.565
1401,1.401,-0.593
1402,1.4020000000000001,-0.621
1403,1.403,-0.647
1404,1.4040000000000001,-0.642
1405,1.405,-0.6495
1406,1.4060000000000001,-0.6805
1407,1.407,-0.669
1408,1.408,-0.6535
1409,1.409,-0.637
1410,1.41,-0.607
1411,1.411,-0.588
1412,1.412,-0.576
1413,1.413,-0.5765
1414,1.414,-0.569
1415,1.415,-0.5485
1416,1.416,-0.525
1417,1.417,-0.4955
1418,1.418,-0.473
1419,1.419,-0.4545
1420,1.42,-0.4585
1421,1.421,-0.456
1422,1.422,-0.445
1423,1.423,-0.441
1424,1.424,-0.439
1425,1.425,-0.438
1426,1.426,-0.424
1427,1.427,-0.4535
1428,1.428,-0.479
1429,1.429,-0.4655
1430,1.43,-0.4335
1431,1.431,-0.4065
1432,1.432,-0.3985
1433,1.433,-0.3905
1434,1.434,-0.3885
1435,1.435,-0.375
1436,1.436,-0.365
1437,1.437,-0.3685
1438,1.438,-0.3585
1439,1.439,-0.3505
1440,1.44,-0.364
1441,1.441,-0.3555
1442,1.442,-0.351
1443,1.443,-0.3585
1444,1.444,-0.3605
1445,1.445,-0.3685
1446,1.446,-0.368
1447,1.447,-0.3705
1448,1.448,-0.3655
1449,1.449,-0.3595
1450,1.45,-0.3585
1451,1.451,-0.3485
1452,1.452,-0.337
1453,1.453,-0.326
1454,1.454,-0.314
1455,1.455,-0.2955
1456,1.456,-0.2805
1457,1.457,-0.271
1458,1.458,-0.2555
1459,1.459,-0.24
1460,1.46,-0.222
1461,1.461,-0.2085
1462,1.462,-0.1995
1463,1.463,-0.185
1464,1.464,-0.176
1465,1.465,-0.173
1466,1.466,-0.1665
1467,1.467,-0.158
1468,1.468,-0.1465
1469,1.469,-0.1255
1470,1.47,-0.1155
1471,1.471,-0.121
1472,1.472,-0.1205
1473,1.473,-0.125
1474,1.474,-0.1305
1475,1.475,-0.1205
1476,1.476,-0.114
1477,1.477,-0.121
1478,1.478,-0.1205
1479,1.479,-0.11
1480,1.48,-0.112
1481,1.481,-0.125
1482,1.482,-0.1055
1483,1.483,-0.0895
1484,1.484,-0.1105
1485,1.485,-0.115
1486,1.486,-0.126
1487,1.487,-0.1325
1488,1.488,-0.1225
1489,1.489,-0.125
1490,1.49,-0.1295
1491,1.491,-0.1375
1492,1.492,-0.1345
1493,1.493,-0.116
1494,1.494,-0.1095
1495,1.495,-0.113
1496,1.496,-0.1235
1497,1.497,-0.1315
1498,1.498,-0.1335
1499,1.499,-0.129
1500,1.5,-0.138
1501,1.5010000000000001,-0.158
1502,1.502,-0.16
1503,1.5030000000000001,-0.1535
1504,1.504,-0.153
1505,1.5050000000000001,-0.153
1506,1.506,-0.156
1507,1.5070000000000001,-0.1585
1508,1.508,-0.152
1509,1.5090000000000001,-0.145
1510,1.51,-0.143
1511,1.5110000000000001,-0.1455
1512,1.512,-0.146
1513,1.5130000000000001,-0.141
1514,1.514,-0.1375
1515,1.5150000000000001,-0.14
1516,1.516,-0.138
1517,1.5170000000000001,-0.1295
1518,1.518,-0.1345
1519,1.5190000000000001,-0.1435
1520,1.52,-0.143
1521,1.5210000000000001,-0.139
1522,1.522,-0.1385
1523,1.5230000000000001,-0.136
1524,1.524,-0.138
1525,1.5250000000000001,-0.1465
1526,1.526,-0.155
1527,1.5270000000000001,-0.1525
1528,1.528,-0.1365
1529,1.5290000000000001,-0.1505
1530,1.53,-0.159
1531,1.5310000000000001,-0.144
1532,1.532,-0.139
1533,1.5330000000000001,-0.1295
1534,1.534,-0.1415
1535,1.5350000000000001,-0.1495
1536,1.536,-0.135
1537,1.537,-0.143
1538,1.538,-0.143
1539,1.539,-0.134
1540,1.54,-0.134
1541,1.541,-0.1375
1542,1.542,-0.1405
1543,1.543,-0.134
1544,1.544,-0.142
1545,1.545,-0.1455
1546,1.546,-0.149
1547,1.547,-0.1585
1548,1.548,-0.1595
1549,1.549,-0.1525
1550,1.55,-0.1455
1551,1.551,-0.147
1552,1.552,-0.149
1553,1.553,-0.1465
1554,1.554,-0.149
1555,1.555,-0.1705
1556,1.556,-0.168
1557,1.557,-0.158
1558,1.558,-0.162
1559,1.559,-0.1595
1560,1.56,-0.1675
1561,1.561,-0.1755
1562,1.562,-0.1785
1563,1.563,-0.1815
1564,1.564,-0.186
1565,1.565,-0.186
1566,1.566,-0.1905
1567,1.567,-0.1935
1568,1.568,-0.1875
1569,1.569,-0.188
1570,1.57,-0.1915
1571,1.571,-0.1955
1572,1.572,-0.1935
1573,1.573,-0.1935
1574,1.574,-0.2
1575,1.575,-0.203
1576,1.576,-0.198
1577,1.577,-0.1935
1578,1.578,-0.1955
1579,1.579,-0.198
1580,1.58,-0.2055
1581,1.581,-0.2155
1582,1.582,-0.218
1583,1.583,-0.221
1584,1.584,-0.2255
1585,1.585,-0.225
1586,1.586,-0.223
1587,1.587,-0.2265
1588,1.588,-0.239
1589,1.589,-0.2395
1590,1.59,-0.2425
1591,1.591,-0.2455
1592,1.592,-0.2435
1593,1.593,-0.242
1594,1.594,-0.2335
1595,1.595,-0.238
1596,1.596,-0.226
1597,1.597,-0.2335
1598,1.598,-0.276
1599,1.599,-0.2665
1600,1.6,-0.252
1601,1.601,-0.2435
1602,1.602,-0.244
1603,1.603,-0.291
1604,1.604,-0.308
1605,1.605,-0.2935
1606,1.606,-0.2975
1607,1.607,-0.302
1608,1.608,-0.303
1609,1.609,-0.308
1610,1.61,-0.307
1611,1.611,-0.311
1612,1.612,-0.3155
1613,1.613,-0.3145
1614,1.614,-0.3195
1615,1.615,-0.322
1616,1.616,-0.326
1617,1.617,-0.3245
1618,1.618,-0.3175
1619,1.619,-0.319
1620,1.62,-0.315
1621,1.621,-0.317
1622,1.622,-0.324
1623,1.623,-0.3305
1624,1.624,-0.339
1625,1.625,-0.341
1626,1.6260000000000001,-0.3425
1627,1.627,-0.3455
1628,1.6280000000000001,-0.3445
1629,1.629,-0.346
1630,1.6300000000000001,-0.3545
1631,1.631,-0.368
1632,1.6320000000000001,-0.369
1633,1.633,-0.3485
1634,1.6340000000000001,-0.347
1635,1.635,-0.3495
1636,1.6360000000000001,-0.3555
1637,1.637,-0.361
1638,1.6380000000000001,-0.3455
1639,1.639,-0.362
1640,1.6400000000000001,-0.3815
1641,1.641,-0.389
1642,1.6420000000000001,-0.3895
1643,1.643,-0.3735
1644,1.6440000000000001,-0.372
1645,1.645,-0.3845
1646,1.6460000000000001,-0.391
1647,1.647,-0.382
1648,1.6480000000000001,-0.366
1649,1.649,-0.3595
1650,1.6500000000000001,-0.367
1651,1.651,-0.3695
1652,1.6520000000000001,-0.366
1653,1.653,-0.3615
1654,1.6540000000000001,-0.3605
1655,1.655,-0.366
1656,1.6560000000000001,-0.3625
1657,1.657,-0.3625
1658,1.6580000000000001,-0.364
1659,1.659,-0.3635
1660,1.6600000000000001,-0.366
1661,1.661,-0.3655
1662,1.6620000000000001,-0.365
1663,1.663,-0.3655
1664,1.6640000000000001,-0.367
1665,1.665,-0.3675
1666,1.666,-0.3685
1667,1.667,-0.3665
1668,1.668,-0.3645
1669,1.669,-0.358
1670,1.67,-0.35
1671,1.671,-0.3485
1672,1.672,-0.3445
1673,1.673,-0.3395
1674,1.674,-0.337
1675,1.675,-0.337
1676,1.676,-0.3375
1677,1.677,-0.3375
1678,1.678,-0.336
1679,1.679,-0.335
1680,1.68,-0.335
1681,1.681,-0.3305
1682,1.682,-0.329
1683,1.683,-0.3325
1684,1.684,-0.332
1685,1.685,-0.3295
1686,1.686,-0.3325
1687,1.687,-0.328
1688,1.688,-0.321
1689,1.689,-0.3245
1690,1.69,-0.3225
1691,1.691,-0.3205
1692,1.692,-0.315
1693,1.693,-0.3015
1694,1.694,-0.2975
1695,1.695,-0.3
1696,1.696,-0.297
1697,1.697,-0.3005
1698,1.698,-0.3005
1699,1.699,-0.2935
1700,1.7,-0.2995
1701,1.701,-0.293
1702,1.702,-0.2825
1703,1.703,-0.291
1704,1.704,-0.295
1705,1.705,-0.282
1706,1.706,-0.271
1707,1.707,-0.2915
1708,1.708,-0.2875
1709,1.709,-0.249
1710,1.71,-0.255
1711,1.711,-0.2775
1712,1.712,-0.2765
1713,1.713,-0.272
1714,1.714,-0.255
1715,1.715,-0.235
1716,1.716,-0.2465
1717,1.717,-0.2605
1718,1.718,-0.2595
1719,1.719,-0.2435
1720,1.72,-0.2405
1721,1.721,-0.2585
1722,1.722,-0.2525
1723,1.723,-0.2525
1724,1.724,-0.2535
1725,1.725,-0.2435
1726,1.726,-0.2505
1727,1.727,-0.2515
1728,1.728,-0.244
1729,1.729,-0.242
1730,1.73,-0.237
1731,1.731,-0.2305
1732,1.732,-0.228
1733,1.733,-0.2245
1734,1.734,-0.2165
1735,1.735,-0.2175
1736,1.736,-0.214
1737,1.737,-0.2085
1738,1.738,-0.2095
1739,1.739,-0.21
1740,1.74,-0.216
1741,1.741,-0.2175
1742,1.742,-0.2175
1743,1.743,-0.219
1744,1.744,-0.2205
1745,1.745,-0.2215
1746,1.746,-0.2235
1747,1.747,-0.224
1748,1.748,-0.223
1749,1.749,-0.223
1750,1.75,-0.2185
1751,1.7510000000000001,-0.2215
1752,1.752,-0.2185
1753,1.7530000000000001,-0.2175
1754,1.754,-0.215
1755,1.7550000000000001,-0.214
1756,1.756,-0.225
1757,1.7570000000000001,-0.2125
1758,1.758,-0.2055
1759,1.7590000000000001,-0.196
1760,1.76,-0.1975
1761,1.7610000000000001,-0.1855
1762,1.762,-0.1755
1763,1.7630000000000001,-0.2075
1764,1.764,-0.2065
1765,1.7650000000000001,-0.2095
1766,1.766,-0.2045
1767,1.7670000000000001,-0.201
1768,1.768,-0.2105
1769,1.7690000000000001,-0.2085
1770,1.77,-0.195
1771,1.7710000000000001,-0.1845
1772,1.772,-0.1935
1773,1.7730000000000001,-0.1855
1774,1.774,-0.182
1775,1.7750000000000001,-0.188
1776,1.776,-0.197
1777,1.7770000000000001,-0.204
1778,1.778,-0.1985
1779,1.7790000000000001,-0.187
1780,1.78,-0.192
1781,1.7810000000000001,-0.205
1782,1.782,-0.2015
1783,1.7830000000000001,-0.1925
1784,1.784,-0.192
1785,1.7850000000000001,-0.1975
1786,1.786,-0.198
1787,1.7870000000000001,-0.186
1788,1.788,-0.171
1789,1.7890000000000001,-0.189
1790,1.79,-0.1985
1791,1.7910000000000001,-0.188
1792,1.792,-0.182
1793,1.793,-0.1845
1794,1.794,-0.195
1795,1.795,-0.18
1796,1.796,-0.166
1797,1.797,-0.162
1798,1.798,-0.1655
1799,1.799,-0.179
1800,1.8,-0.184
1801,1.801,-0.182
1802,1.802,-0.1775
1803,1.803,-0.1845
1804,1.804,-0.1975
1805,1.805,-0.184
1806,1.806,-0.171
1807,1.807,-0.187
1808,1.808,-0.1955
1809,1.809,-0.1945
1810,1.81,-0.1835
1811,1.811,-0.176
1812,1.812,-0.184
1813,1.813,-0.1765
1814,1.814,-0.1725
1815,1.815,-0.172
1816,1.816,-0.169
1817,1.817,-0.173
1818,1.818,-0.174
1819,1.819,-0.178
1820,1.82,-0.1765
1821,1.821,-0.1785
1822,1.822,-0.178
1823,1.823,-0.1745
1824,1.824,-0.181
1825,1.825,-0.171
1826,1.826,-0.179
1827,1.827,-0.1915
1828,1.828,-0.1885
1829,1.829,-0.182
1830,1.83,-0.174
1831,1.831,-0.1775
1832,1.832,-0.1745
1833,1.833,-0.169
1834,1.834,-0.1655
1835,1.835,-0.165
1836,1.836,-0.1595
1837,1.837,-0.1615
1838,1.838,-0.165
1839,1.839,-0.1665
1840,1.84,-0.1745
1841,1.841,-0.1735
1842,1.842,-0.164
1843,1.843,-0.1595
1844,1.844,-0.1695
1845,1.845,-0.165
1846,1.846,-0.1695
1847,1.847,-0.1725
1848,1.848,-0.1575
1849,1.849,-0.158
1850,1.85,-0.1625
1851,1.851,-0.158
1852,1.852,-0.1555
1853,1.853,-0.145
1854,1.854,-0.147
1855,1.855,-0.14
1856,1.856,-0.1305
1857,1.857,-0.1565
1858,1.858,-0.1545
1859,1.859,-0.1525
1860,1.86,-0.15
1861,1.861,-0.1425
1862,1.862,-0.1485
1863,1.863,-0.1495
1864,1.864,-0.1575
1865,1.865,-0.153
1866,1.866,-0.15
1867,1.867,-0.149
1868,1.868,-0.139
1869,1.869,-0.132
1870,1.87,-0.1205
1871,1.871,-0.131
1872,1.872,-0.1315
1873,1.873,-0.118
1874,1.874,-0.1165
1875,1.875,-0.112
1876,1.8760000000000001,-0.116
1877,1.877,-0.109
1878,1.8780000000000001,-0.109
1879,1.879,-0.136
1880,1.8800000000000001,-0.152
1881,1.881,-0.1415
1882,1.8820000000000001,-0.124
1883,1.883,-0.12
1884,1.8840000000000001,-0.1355
1885,1.885,-0.144
1886,1.8860000000000001,-0.144
1887,1.887,-0.1385
1888,1.8880000000000001,-0.1295
1889,1.889,-0.1295
1890,1.8900000000000001,-0.1305
1891,1.891,-0.1295
1892,1.8920000000000001,-0.127
1893,1.893,-0.1165
1894,1.8940000000000001,-0.119
1895,1.895,-0.11
1896,1.8960000000000001,-0.082
1897,1.897,-0.1
1898,1.8980000000000001,-0.1295
1899,1.899,-0.136
1900,1.9000000000000001,-0.1275
1901,1.901,-0.1285
1902,1.9020000000000001,-0.134
1903,1.903,-0.127
1904,1.9040000000000001,-0.1285
1905,1.905,-0.1255
1906,1.9060000000000001,-0.125
1907,1.907,-0.128
1908,1.9080000000000001,-0.1235
1909,1.909,-0.12
1910,1.9100000000000001,-0.1185
1911,1.911,-0.116
1912,1.9120000000000001,-0.114
1913,1.913,-0.1095
1914,1.9140000000000001,-0.107
1915,1.915,-0.103
1916,1.9160000000000001,-0.099
1917,1.917,-0.091
1918,1.9180000000000001,-0.0825
1919,1.919,-0.09
1920,1.92,-0.0865
1921,1.921,-0.0805
1922,1.922,-0.078
1923,1.923,-0.0775
1924,1.924,-0.071
1925,1.925,-0.058
1926,1.926,-0.066
1927,1.927,-0.0615
1928,1.928,-0.0595
1929,1.929,-0.0715
1930,1.93,-0.071
1931,1.931,-0.062
1932,1.932,-0.0445
1933,1.933,-0.039
1934,1.934,-0.0415
1935,1.935,-0.044
1936,1.936,-0.046
1937,1.937,-0.0365
1938,1.938,-0.041
1939,1.939,-0.0615
1940,1.94,-0.056
1941,1.941,-0.047
1942,1.942,-0.037
1943,1.943,-0.023
1944,1.944,-0.0245
1945,1.945,-0.0285
1946,1.946,-0.0225
1947,1.947,-0.0155
1948,1.948,-0.0115
1949,1.949,-0.007
1950,1.95,-0.0125
1951,1.951,-0.009
1952,1.952,-0.0045
1953,1.953,-0.0075
1954,1.954,-0.004
1955,1.955,-0.003
1956,1.956,-0.0055
1957,1.957,-0.0045
1958,1.958,-0.0065
1959,1.959,-0.004
1960,1.96,0.0035
1961,1.961,-0.0005
1962,1.962,-0.0015
1963,1.963,0.005
1964,1.964,0.0105
1965,1.965,0.013
1966,1.966,0.0095
1967,1.967,0.0115
1968,1.968,0.0155
1969,1.969,0.016
1970,1.97,0.0165
1971,1.971,0.018
1972,1.972,0.0205
1973,1.973,0.0145
1974,1.974,0.02
1975,1.975,0.043
1976,1.976,0.0125
1977,1.977,-0.008
1978,1.978,0.0175
1979,1.979,-0.0015
1980,1.98,-0.0145
1981,1.981,-0.0025
1982,1.982,0.01
1983,1.983,0.0185
1984,1.984,0.015
1985,1.985,-0.0005
1986,1.986,0.006
1987,1.987,0.0075
1988,1.988,-0.0285
1989,1.989,-0.025
1990,1.99,-0.0205
1991,1.991,-0.0175
1992,1.992,-0.0045
1993,1.993,-0.011
1994,1.994,-0.0145
1995,1.995,-0.0265
1996,1.996,-0.0235
1997,1.997,-0.0205
1998,1.998,-0.0385
1999,1.999,-0.045
2000,2.0,-0.0395
2001,2.001,-0.0425
2002,2.0020000000000002,-0.056
2003,2.003,-0.0665
2004,2.004,-0.0675
2005,2.005,-0.068
2006,2.0060000000000002,-0.0755
2007,2.007,-0.075
2008,2.008,-0.075
2009,2.009,-0.077
2010,2.0100000000000002,-0.079
2011,2.011,-0.083
2012,2.012,-0.0825
2013,2.013,-0.089
2014,2.0140000000000002,-0.0875
2015,2.015,-0.0855
2016,2.016,-0.0905
2017,2.017,-0.096
2018,2.0180000000000002,-0.1005
2019,2.019,-0.101
2020,2.02,-0.106
2021,2.021,-0.124
2022,2.0220000000000002,-0.1375
2023,2.023,-0.1255
2024,2.024,-0.1145
2025,2.025,-0.1065
2026,2.0260000000000002,-0.1015
2027,2.027,-0.1055
2028,2.028,-0.114
2029,2.029,-0.118
2030,2.0300000000000002,-0.1245
2031,2.031,-0.121
2032,2.032,-0.1165
2033,2.033,-0.119
2034,2.0340000000000003,-0.0945
2035,2.035,-0.087
2036,2.036,-0.0795
2037,2.037,-0.075
2038,2.0380000000000003,-0.1095
2039,2.039,-0.1175
2040,2.04,-0.108
2041,2.041,-0.106
2042,2.0420000000000003,-0.105
2043,2.043,-0.1095
2044,2.044,-0.108
2045,2.045,-0.104
2046,2.0460000000000003,-0.105
2047,2.047,-0.106
2048,2.048,-0.108
2049,2.049,-0.1165
2050,2.05,-0.127
2051,2.051,-0.13
2052,2.052,-0.13
2053,2.053,-0.1315
2054,2.054,-0.1275
2055,2.055,-0.125
2056,2.056,-0.125
2057,2.057,-0.1265
2058,2.058,-0.1295
2059,2.059,-0.133
2060,2.06,-0.1145
2061,2.061,-0.0975
2062,2.062,-0.113
2063,2.063,-0.1215
2064,2.064,-0.1195
2065,2.065,-0.119
2066,2.066,-0.11
2067,2.067,-0.1075
2068,2.068,-0.0985
2069,2.069,-0.084
2070,2.07,-0.0975
2071,2.071,-0.119
2072,2.072,-0.1245
2073,2.073,-0.126
2074,2.074,-0.1285
2075,2.075,-0.125
2076,2.076,-0.153
2077,2.077,-0.2015
2078,2.078,-0.2245
2079,2.079,-0.248
2080,2.08,-0.267
2081,2.081,-0.2845
2082,2.082,-0.3115
2083,2.083,-0.3225
2084,2.084,-0.3285
2085,2.085,-0.3395
2086,2.086,-0.347
2087,2.087,-0.361
2088,2.088,-0.384
2089,2.089,-0.3865
2090,2.09,-0.386
2091,2.091,-0.396
2092,2.092,-0.3975
2093,2.093,-0.394
2094,2.094,-0.3945
2095,2.095,-0.4035
2096,2.096,-0.4075
2097,2.097,-0.4195
2098,2.098,-0.4155
2099,2.099,-0.408
2100,2.1,-0.4015
2101,2.101,-0.3915
2102,2.102,-0.3955
2103,2.103,-0.383
2104,2.104,-0.36
2105,2.105,-0.3575
2106,2.106,-0.36
2107,2.107,-0.344
2108,2.108,-0.323
2109,2.109,-0.299
2110,2.11,-0.267
2111,2.111,-0.2455
2112,2.112,-0.2265
2113,2.113,-0.196
2114,2.114,-0.187
2115,2.115,-0.1735
2116,2.116,-0.1655
2117,2.117,-0.1905
2118,2.118,-0.217
2119,2.119,-0.2475
2120,2.12,-0.2925
2121,2.121,-0.351
2122,2.122,-0.3905
2123,2.123,-0.4085
2124,2.124,-0.433
2125,2.125,-0.455
2126,2.126,-0.4695
2127,2.1270000000000002,-0.5065
2128,2.128,-0.5525
2129,2.129,-0.5765
2130,2.13,-0.594
2131,2.1310000000000002,-0.608
2132,2.132,-0.6025
2133,2.133,-0.592
2134,2.134,-0.5945
2135,2.1350000000000002,-0.6035
2136,2.136,-0.594
2137,2.137,-0.58
2138,2.138,-0.562
2139,2.1390000000000002,-0.5365
2140,2.14,-0.522
2141,2.141,-0.5065
2142,2.142,-0.4985
2143,2.1430000000000002,-0.47
2144,2.144,-0.4385
2145,2.145,-0.443
2146,2.146,-0.4445
2147,2.1470000000000002,-0.4335
2148,2.148,-0.4155
2149,2.149,-0.397
2150,2.15,-0.3885
2151,2.1510000000000002,-0.385
2152,2.152,-0.3885
2153,2.153,-0.3885
2154,2.154,-0.388
2155,2.1550000000000002,-0.3895
2156,2.156,-0.3755
2157,2.157,-0.373
2158,2.158,-0.367
2159,2.1590000000000003,-0.354
2160,2.16,-0.348
2161,2.161,-0.3425
2162,2.162,-0.343
2163,2.1630000000000003,-0.336
2164,2.164,-0.3285
2165,2.165,-0.326
2166,2.166,-0.3295
2167,2.1670000000000003,-0.326
2168,2.168,-0.315
2169,2.169,-0.3105
2170,2.17,-0.3135
2171,2.1710000000000003,-0.3115
2172,2.172,-0.313
2173,2.173,-0.316
2174,2.174,-0.32
2175,2.1750000000000003,-0.3285
2176,2.176,-0.329
2177,2.177,-0.327
2178,2.178,-0.3175
2179,2.179,-0.3085
2180,2.18,-0.288
2181,2.181,-0.2795
2182,2.182,-0.29
2183,2.183,-0.276
2184,2.184,-0.268
2185,2.185,-0.2625
2186,2.186,-0.2445
2187,2.187,-0.2255
2188,2.188,-0.2075
2189,2.189,-0.1815
2190,2.19,-0.1685
2191,2.191,-0.1715
2192,2.192,-0.1605
2193,2.193,-0.1475
2194,2.194,-0.1315
2195,2.195,-0.118
2196,2.196,-0.1175
2197,2.197,-0.1025
2198,2.198,-0.1025
2199,2.199,-0.1165
2200,2.2,-0.1045
2201,2.201,-0.1025
2202,2.202,-0.101
2203,2.203,-0.0995
2204,2.204,-0.1025
2205,2.205,-0.103
2206,2.206,-0.105
2207,2.207,-0.101
2208,2.208,-0.0935
2209,2.209,-0.0895
2210,2.21,-0.094
2211,2.211,-0.0915
2212,2.212,-0.097
2213,2.213,-0.101
2214,2.214,-0.094
2215,2.215,-0.0865
2216,2.216,-0.083
2217,2.217,-0.0835
2218,2.218,-0.0805
2219,2.219,-0.091
2220,2.22,-0.091
2221,2.221,-0.086
2222,2.222,-0.0815
2223,2.223,-0.0765
2224,2.224,-0.0985
2225,2.225,-0.114
2226,2.226,-0.11
2227,2.227,-0.1125
2228,2.228,-0.1055
2229,2.229,-0.0895
2230,2.23,-0.0885
2231,2.231,-0.095
2232,2.232,-0.09
2233,2.233,-0.0635
2234,2.234,-0.077
2235,2.235,-0.1095
2236,2.236,-0.104
2237,2.237,-0.0935
2238,2.238,-0.09
2239,2.239,-0.0915
2240,2.24,-0.093
2241,2.241,-0.088
2242,2.242,-0.088
2243,2.243,-0.0975
2244,2.244,-0.099
2245,2.245,-0.124
2246,2.246,-0.1335
2247,2.247,-0.121
2248,2.248,-0.1145
2249,2.249,-0.102
2250,2.25,-0.1075
2251,2.251,-0.108
2252,2.2520000000000002,-0.1
2253,2.253,-0.098
2254,2.254,-0.102
2255,2.255,-0.0995
2256,2.2560000000000002,-0.1015
2257,2.257,-0.104
2258,2.258,-0.099
2259,2.259,-0.111
2260,2.2600000000000002,-0.1195
2261,2.261,-0.1215
2262,2.262,-0.126
2263,2.263,-0.126
2264,2.2640000000000002,-0.128
2265,2.265,-0.1315
2266,2.266,-0.133
2267,2.267,-0.1325
2268,2.2680000000000002,-0.1355
2269,2.269,-0.126
2270,2.27,-0.118
2271,2.271,-0.12
2272,2.2720000000000002,-0.118
2273,2.273,-0.1135
2274,2.274,-0.1065
2275,2.275,-0.1115
2276,2.2760000000000002,-0.095
2277,2.277,-0.0855
2278,2.278,-0.0935
2279,2.279,-0.095
2280,2.2800000000000002,-0.1215
2281,2.281,-0.138
2282,2.282,-0.133
2283,2.283,-0.128
2284,2.2840000000000003,-0.144
2285,2.285,-0.15
2286,2.286,-0.1505
2287,2.287,-0.1685
2288,2.2880000000000003,-0.1705
2289,2.289,-0.157
2290,2.29,-0.145
2291,2.291,-0.1425
2292,2.2920000000000003,-0.138
2293,2.293,-0.149
2294,2.294,-0.175
2295,2.295,-0.1845
2296,2.2960000000000003,-0.176
2297,2.297,-0.173
2298,2.298,-0.1805
2299,2.299,-0.1905
2300,2.3000000000000003,-0.1925
2301,2.301,-0.1925
2302,2.302,-0.1945
2303,2.303,-0.199
2304,2.3040000000000003,-0.2055
2305,2.305,-0.2065
2306,2.306,-0.2115
2307,2.307,-0.2115
2308,2.308,-0.214
2309,2.309,-0.217
2310,2.31,-0.215
2311,2.311,-0.2185
2312,2.312,-0.218
2313,2.313,-0.218
2314,2.314,-0.2225
2315,2.315,-0.22
2316,2.316,-0.218
2317,2.317,-0.2215
2318,2.318,-0.223
2319,2.319,-0.227
2320,2.32,-0.234
2321,2.321,-0.2385
2322,2.322,-0.2445
2323,2.323,-0.2525
2324,2.324,-0.2575
2325,2.325,-0.2635
2326,2.326,-0.267
2327,2.327,-0.2595
2328,2.328,-0.2625
2329,2.329,-0.2685
2330,2.33,-0.2695
2331,2.331,-0.271
2332,2.332,-0.2695
2333,2.333,-0.271
2334,2.334,-0.2725
2335,2.335,-0.273
2336,2.336,-0.2745
2337,2.337,-0.28
2338,2.338,-0.2835
2339,2.339,-0.288
2340,2.34,-0.2975
2341,2.341,-0.3015
2342,2.342,-0.3085
2343,2.343,-0.312
2344,2.344,-0.318
2345,2.345,-0.315
2346,2.346,-0.312
2347,2.347,-0.3055
2348,2.348,-0.2955
2349,2.349,-0.3015
2350,2.35,-0.294
2351,2.351,-0.319
2352,2.352,-0.334
2353,2.353,-0.33
2354,2.354,-0.344
2355,2.355,-0.3375
2356,2.356,-0.307
2357,2.357,-0.2935
2358,2.358,-0.3345
2359,2.359,-0.363
2360,2.36,-0.3535
2361,2.361,-0.346
2362,2.362,-0.348
2363,2.363,-0.3475
2364,2.364,-0.3435
2365,2.365,-0.3405
2366,2.366,-0.3465
2367,2.367,-0.347
2368,2.368,-0.3375
2369,2.369,-0.338
2370,2.37,-0.344
2371,2.371,-0.346
2372,2.372,-0.343
2373,2.373,-0.341
2374,2.374,-0.343
2375,2.375,-0.345
2376,2.376,-0.345
2377,2.3770000000000002,-0.346
2378,2.378,-0.346
2379,2.379,-0.3475
2380,2.38,-0.3485
2381,2.3810000000000002,-0.3515
2382,2.382,-0.3525
2383,2.383,-0.352
2384,2.384,-0.3475
2385,2.3850000000000002,-0.347
2386,2.386,-0.3535
2387,2.387,-0.355
2388,2.388,-0.351
2389,2.3890000000000002,-0.3465
2390,2.39,-0.348
2391,2.391,-0.3505
2392,2.392,-0.352
2393,2.3930000000000002,-0.355
2394,2.394,-0.355
2395,2.395,-0.348
2396,2.396,-0.3375
2397,2.3970000000000002,-0.3265
2398,2.398,-0.327
2399,2.399,-0.329
2400,2.4,-0.345
2401,2.4010000000000002,-0.3295
2402,2.402,-0.326
2403,2.403,-0.3685
2404,2.404,-0.363
2405,2.4050000000000002,-0.3475
2406,2.406,-0.3355
2407,2.407,-0.34
2408,2.408,-0.35
2409,2.4090000000000003,-0.338
2410,2.41,-0.3315
2411,2.411,-0.3335
2412,2.412,-0.3345
2413,2.4130000000000003,-0.321
2414,2.414,-0.2985
2415,2.415,-0.298
2416,2.416,-0.297
2417,2.4170000000000003,-0.2925
2418,2.418,-0.318
2419,2.419,-0.3245
2420,2.42,-0.317
2421,2.4210000000000003,-0.3105
2422,2.422,-0.309
2423,2.423,-0.3145
2424,2.424,-0.3135
2425,2.4250000000000003,-0.318
2426,2.426,-0.316
2427,2.427,-0.313
2428,2.428,-0.3125
2429,2.4290000000000003,-0.304
2430,2.43,-0.2965
2431,2.431,-0.292
2432,2.432,-0.2905
2433,2.433,-0.2915
2434,2.434,-0.2915
2435,2.435,-0.2875
2436,2.436,-0.2835
2437,2.437,-0.2825
2438,2.438,-0.2795
2439,2.439,-0.2795
2440,2.44,-0.272
2441,2.441,-0.2715
2442,2.442,-0.269
2443,2.443,-0.277
2444,2.444,-0.2715
2445,2.445,-0.245
2446,2.446,-0.2615
2447,2.447,-0.2615
2448,2.448,-0.261
2449,2.449,-0.274
2450,2.45,-0.2565
2451,2.451,-0.246
2452,2.452,-0.2535
2453,2.453,-0.255
2454,2.454,-0.245
2455,2.455,-0.2235
2456,2.456,-0.219
2457,2.457,-0.2395
2458,2.458,-0.253
2459,2.459,-0.251
2460,2.46,-0.243
2461,2.461,-0.245
2462,2.462,-0.247
2463,2.463,-0.2415
2464,2.464,-0.234
2465,2.465,-0.232
2466,2.466,-0.232
2467,2.467,-0.2325
2468,2.468,-0.236
2469,2.469,-0.2285
2470,2.47,-0.2225
2471,2.471,-0.225
2472,2.472,-0.226
2473,2.473,-0.228
2474,2.474,-0.227
2475,2.475,-0.2205
2476,2.476,-0.2195
2477,2.477,-0.221
2478,2.478,-0.2205
2479,2.479,-0.214
2480,2.48,-0.206
2481,2.481,-0.2115
2482,2.482,-0.229
2483,2.483,-0.2395
2484,2.484,-0.235
2485,2.485,-0.22
2486,2.486,-0.205
2487,2.487,-0.224
2488,2.488,-0.236
2489,2.489,-0.2245
2490,2.49,-0.225
2491,2.491,-0.2285
2492,2.492,-0.231
2493,2.493,-0.228
2494,2.494,-0.227
2495,2.495,-0.2225
2496,2.496,-0.2205
2497,2.497,-0.224
2498,2.498,-0.231
2499,2.499,-0.2335
2500,2.5,-0.234
2501,2.501,-0.2385
2502,2.5020000000000002,-0.236
2503,2.503,-0.2355
2504,2.504,-0.2305
2505,2.505,-0.236
2506,2.5060000000000002,-0.224
2507,2.507,-0.221
2508,2.508,-0.241
2509,2.509,-0.236
2510,2.5100000000000002,-0.235
2511,2.511,-0.231
2512,2.512,-0.2235
2513,2.513,-0.2275
2514,2.5140000000000002,-0.23
2515,2.515,-0.227
2516,2.516,-0.228
2517,2.517,-0.233
2518,2.5180000000000002,-0.2325
2519,2.519,-0.231
2520,2.52,-0.2235
2521,2.521,-0.2195
2522,2.5220000000000002,-0.2255
2523,2.523,-0.228
2524,2.524,-0.2355
2525,2.525,-0.2395
2526,2.5260000000000002,-0.2375
2527,2.527,-0.229
2528,2.528,-0.2345
2529,2.529,-0.2295
2530,2.5300000000000002,-0.2125
2531,2.531,-0.231
2532,2.532,-0.247
2533,2.533,-0.2455
2534,2.5340000000000003,-0.2395
2535,2.535,-0.2325
2536,2.536,-0.2335
2537,2.537,-0.239
2538,2.5380000000000003,-0.243
2539,2.539,-0.2475
2540,2.54,-0.24
2541,2.541,-0.2305
2542,2.5420000000000003,-0.2195
2543,2.543,-0.2155
2544,2.544,-0.2315
2545,2.545,-0.2375
2546,2.5460000000000003,-0.221
2547,2.547,-0.213
2548,2.548,-0.2215
2549,2.549,-0.234
2550,2.5500000000000003,-0.238
2551,2.551,-0.2235
2552,2.552,-0.214
2553,2.553,-0.2095
2554,2.5540000000000003,-0.2065
2555,2.555,-0.206
2556,2.556,-0.2085
2557,2.557,-0.208
2558,2.5580000000000003,-0.2095
2559,2.559,-0.2225
2560,2.56,-0.219
2561,2.561,-0.2145
2562,2.562,-0.2205
2563,2.563,-0.217
2564,2.564,-0.2175
2565,2.565,-0.2205
2566,2.566,-0.219
2567,2.567,-0.2155
2568,2.568,-0.213
2569,2.569,-0.2135
2570,2.57,-0.2105
2571,2.571,-0.205
2572,2.572,-0.2
2573,2.573,-0.197
2574,2.574,-0.1965
2575,2.575,-0.2035
2576,2.576,-0.195
2577,2.577,-0.192
2578,2.578,-0.1925
2579,2.579,-0.1885
2580,2.58,-0.2005
2581,2.581,-0.194
2582,2.582,-0.203
2583,2.583,-0.212
2584,2.584,-0.2035
2585,2.585,-0.202
2586,2.586,-0.1825
2587,2.587,-0.168
2588,2.588,-0.1825
2589,2.589,-0.2035
2590,2.59,-0.2075
2591,2.591,-0.195
2592,2.592,-0.1825
2593,2.593,-0.176
2594,2.594,-0.166
2595,2.595,-0.18
2596,2.596,-0.205
2597,2.597,-0.2055
2598,2.598,-0.1905
2599,2.599,-0.1765
2600,2.6,-0.1825
2601,2.601,-0.185
2602,2.602,-0.1785
2603,2.603,-0.184
2604,2.604,-0.1835
2605,2.605,-0.18
2606,2.606,-0.178
2607,2.607,-0.178
2608,2.608,-0.178
2609,2.609,-0.1755
2610,2.61,-0.178
2611,2.611,-0.1745
2612,2.612,-0.164
2613,2.613,-0.161
2614,2.614,-0.161
2615,2.615,-0.153
2616,2.616,-0.1565
2617,2.617,-0.1645
2618,2.618,-0.164
2619,2.619,-0.164
2620,2.62,-0.1635
2621,2.621,-0.161
2622,2.622,-0.1615
2623,2.623,-0.167
2624,2.624,-0.167
2625,2.625,-0.1725
2626,2.626,-0.1695
2627,2.6270000000000002,-0.1645
2628,2.628,-0.1655
2629,2.629,-0.1605
2630,2.63,-0.158
2631,2.6310000000000002,-0.154
2632,2.632,-0.137
2633,2.633,-0.13
2634,2.634,-0.158
2635,2.6350000000000002,-0.165
2636,2.636,-0.1505
2637,2.637,-0.1565
2638,2.638,-0.163
2639,2.6390000000000002,-0.1605
2640,2.64,-0.1565
2641,2.641,-0.1545
2642,2.642,-0.1555
2643,2.6430000000000002,-0.154
2644,2.644,-0.147
2645,2.645,-0.147
2646,2.646,-0.1415
2647,2.6470000000000002,-0.1385
2648,2.648,-0.134
2649,2.649,-0.1275
2650,2.65,-0.131
2651,2.6510000000000002,-0.1135
2652,2.652,-0.107
2653,2.653,-0.117
2654,2.654,-0.1125
2655,2.6550000000000002,-0.104
2656,2.656,-0.0995
2657,2.657,-0.1
2658,2.658,-0.0955
2659,2.6590000000000003,-0.0915
2660,2.66,-0.0855
2661,2.661,-0.08
2662,2.662,-0.0815
2663,2.6630000000000003,-0.077
2664,2.664,-0.072
2665,2.665,-0.074
2666,2.666,-0.074
2667,2.6670000000000003,-0.0705
2668,2.668,-0.0615
2669,2.669,-0.0505
2670,2.67,-0.046
2671,2.6710000000000003,-0.0515
2672,2.672,-0.0445
2673,2.673,-0.028
2674,2.674,-0.0355
2675,2.6750000000000003,-0.038
2676,2.676,-0.033
2677,2.677,-0.034
2678,2.678,-0.037
2679,2.6790000000000003,-0.0375
2680,2.68,-0.0365
2681,2.681,-0.035
2682,2.682,-0.038
2683,2.6830000000000003,-0.031
2684,2.684,-0.0295
2685,2.685,-0.0525
2686,2.686,-0.0415
2687,2.6870000000000003,-0.0325
2688,2.688,-0.036
2689,2.689,-0.037
2690,2.69,-0.038
2691,2.691,-0.027
2692,2.692,-0.0175
2693,2.693,-0.023
2694,2.694,-0.035
2695,2.695,-0.026
2696,2.696,-0.021
2697,2.697,-0.019
2698,2.698,-0.0135
2699,2.699,-0.019
2700,2.7,-0.021
2701,2.701,-0.0255
2702,2.702,-0.0355
2703,2.703,-0.033
2704,2.704,-0.0315
2705,2.705,-0.034
2706,2.706,-0.032
2707,2.707,-0.025
2708,2.708,-0.0175
2709,2.709,-0.017
2710,2.71,0.011
2711,2.711,-0.01
2712,2.712,-0.049
2713,2.713,-0.0255
2714,2.714,-0.017
2715,2.715,-0.026
2716,2.716,-0.0445
2717,2.717,-0.049
2718,2.718,-0.0435
2719,2.719,-0.0415
2720,2.72,-0.044
2721,2.721,-0.0535
2722,2.722,-0.059
2723,2.723,-0.0625
2724,2.724,-0.063
2725,2.725,-0.0725
2726,2.726,-0.082
2727,2.727,-0.083
2728,2.728,-0.0835
2729,2.729,-0.078
2730,2.73,-0.0625
2731,2.731,-0.09
2732,2.732,-0.1285
2733,2.733,-0.137
2734,2.734,-0.131
2735,2.735,-0.1255
2736,2.736,-0.131
2737,2.737,-0.1375
2738,2.738,-0.1445
2739,2.739,-0.142
2740,2.74,-0.143
2741,2.741,-0.1445
2742,2.742,-0.1515
2743,2.743,-0.154
2744,2.744,-0.1565
2745,2.745,-0.1695
2746,2.746,-0.1725
2747,2.747,-0.1725
2748,2.748,-0.1665
2749,2.749,-0.174
2750,2.75,-0.1675
2751,2.751,-0.169
2752,2.7520000000000002,-0.1755
2753,2.753,-0.1485
2754,2.754,-0.1745
2755,2.755,-0.187
2756,2.7560000000000002,-0.166
2757,2.757,-0.174
2758,2.758,-0.1825
2759,2.759,-0.1835
2760,2.7600000000000002,-0.1815
2761,2.761,-0.1835
2762,2.762,-0.1835
2763,2.763,-0.1845
2764,2.7640000000000002,-0.185
2765,2.765,-0.187
2766,2.766,-0.189
2767,2.767,-0.181
2768,2.7680000000000002,-0.1775
2769,2.769,-0.183
2770,2.77,-0.1815
2771,2.771,-0.1785
2772,2.7720000000000002,-0.1825
2773,2.773,-0.1825
2774,2.774,-0.1785
2775,2.775,-0.1805
2776,2.7760000000000002,-0.185
2777,2.777,-0.18
2778,2.778,-0.1785
2779,2.779,-0.184
2780,2.7800000000000002,-0.1855
2781,2.781,-0.1905
2782,2.782,-0.1895
2783,2.783,-0.1895
2784,2.7840000000000003,-0.2
2785,2.785,-0.2025
2786,2.786,-0.2
2787,2.787,-0.1935
2788,2.7880000000000003,-0.1885
2789,2.789,-0.187
2790,2.79,-0.177
2791,2.791,-0.1725
2792,2.7920000000000003,-0.173
2793,2.793,-0.185
2794,2.794,-0.195
2795,2.795,-0.1875
2796,2.7960000000000003,-0.1855
2797,2.797,-0.1745
2798,2.798,-0.17
2799,2.799,-0.18
2800,2.8000000000000003,-0.182
2801,2.801,-0.1835
2802,2.802,-0.2065
2803,2.803,-0.2395
2804,2.8040000000000003,-0.2545
2805,2.805,-0.271
2806,2.806,-0.2815
2807,2.807,-0.283
2808,2.8080000000000003,-0.3215
2809,2.809,-0.3655
2810,2.81,-0.3665
2811,2.811,-0.365
2812,2.8120000000000003,-0.3715
2813,2.813,-0.391
2814,2.814,-0.396
2815,2.815,-0.388
2816,2.816,-0.422
2817,2.817,-0.429
2818,2.818,-0.435
2819,2.819,-0.4325
2820,2.82,-0.407
2821,2.821,-0.4275
2822,2.822,-0.446
2823,2.823,-0.4505
2824,2.824,-0.4545
2825,2.825,-0.4515
2826,2.826,-0.4425
2827,2.827,-0.4335
2828,2.828,-0.4245
2829,2.829,-0.4025
2830,2.83,-0.3755
2831,2.831,-0.3635
2832,2.832,-0.348
2833,2.833,-0.337
2834,2.834,-0.3335
2835,2.835,-0.3225
2836,2.836,-0.3075
2837,2.837,-0.2785
2838,2.838,-0.258
2839,2.839,-0.25
2840,2.84,-0.234
2841,2.841,-0.221
2842,2.842,-0.223
2843,2.843,-0.2275
2844,2.844,-0.2275
2845,2.845,-0.239
2846,2.846,-0.2595
2847,2.847,-0.295
2848,2.848,-0.3385
2849,2.849,-0.3705
2850,2.85,-0.4055
2851,2.851,-0.4255
2852,2.852,-0.442
2853,2.853,-0.469
2854,2.854,-0.494
2855,2.855,-0.523
2856,2.856,-0.5555
2857,2.857,-0.592
2858,2.858,-0.617
2859,2.859,-0.626
2860,2.86,-0.6265
2861,2.861,-0.64
2862,2.862,-0.6515
2863,2.863,-0.64
2864,2.864,-0.6335
2865,2.865,-0.618
2866,2.866,-0.593
2867,2.867,-0.579
2868,2.868,-0.5645
2869,2.869,-0.5615
2870,2.87,-0.549
2871,2.871,-0.5275
2872,2.872,-0.5035
2873,2.873,-0.4575
2874,2.874,-0.448
2875,2.875,-0.4625
2876,2.876,-0.459
2877,2.8770000000000002,-0.4585
2878,2.878,-0.464
2879,2.879,-0.464
2880,2.88,-0.4645
2881,2.8810000000000002,-0.467
2882,2.882,-0.4715
2883,2.883,-0.4805
2884,2.884,-0.4725
2885,2.8850000000000002,-0.452
2886,2.886,-0.436
2887,2.887,-0.4215
2888,2.888,-0.409
2889,2.8890000000000002,-0.405
2890,2.89,-0.4
2891,2.891,-0.3925
2892,2.892,-0.39
2893,2.8930000000000002,-0.383
2894,2.894,-0.3735
2895,2.895,-0.3665
2896,2.896,-0.372
2897,2.8970000000000002,-0.3765
2898,2.898,-0.378
2899,2.899,-0.386
2900,2.9,-0.3695
2901,2.9010000000000002,-0.367
2902,2.902,-0.4005
2903,2.903,-0.4065
2904,2.904,-0.394
2905,2.9050000000000002,-0.3885
2906,2.906,-0.3785
2907,2.907,-0.3635
2908,2.908,-0.3505
2909,2.9090000000000003,-0.338
2910,2.91,-0.323
2911,2.911,-0.3155
2912,2.912,-0.301
2913,2.9130000000000003,-0.2835
2914,2.914,-0.266
2915,2.915,-0.2445
2916,2.916,-0.2385
2917,2.9170000000000003,-0.2285
2918,2.918,-0.214
2919,2.919,-0.203
2920,2.92,-0.1895
2921,2.9210000000000003,-0.176
2922,2.922,-0.1715
2923,2.923,-0.169
2924,2.924,-0.169
2925,2.9250000000000003,-0.1625
2926,2.926,-0.154
2927,2.927,-0.1715
2928,2.928,-0.168
2929,2.9290000000000003,-0.1565
2930,2.93,-0.1475
2931,2.931,-0.1385
2932,2.932,-0.143
2933,2.9330000000000003,-0.1395
2934,2.934,-0.148
2935,2.935,-0.1505
2936,2.936,-0.1465
2937,2.9370000000000003,-0.134
2938,2.938,-0.1255
2939,2.939,-0.1385
2940,2.94,-0.146
2941,2.9410000000000003,-0.1455
2942,2.942,-0.1395
2943,2.943,-0.141
2944,2.944,-0.1415
2945,2.945,-0.154
2946,2.946,-0.148
2947,2.947,-0.1435
2948,2.948,-0.1545
2949,2.949,-0.142
2950,2.95,-0.1445
2951,2.951,-0.1455
2952,2.952,-0.14
2953,2.953,-0.138
2954,2.954,-0.135
2955,2.955,-0.133
2956,2.956,-0.135
2957,2.957,-0.1375
2958,2.958,-0.1395
2959,2.959,-0.1425
2960,2.96,-0.139
2961,2.961,-0.1395
2962,2.962,-0.1395
2963,2.963,-0.143
2964,2.964,-0.1465
2965,2.965,-0.1455
2966,2.966,-0.146
2967,2.967,-0.1425
2968,2.968,-0.1385
2969,2.969,-0.1405
2970,2.97,-0.1385
2971,2.971,-0.137
2972,2.972,-0.1365
2973,2.973,-0.1385
2974,2.974,-0.1445
2975,2.975,-0.1335
2976,2.976,-0.1355
2977,2.977,-0.148
2978,2.978,-0.146
2979,2.979,-0.1465
2980,2.98,-0.141
2981,2.981,-0.1315
2982,2.982,-0.153
2983,2.983,-0.161
2984,2.984,-0.142
2985,2.985,-0.1565
2986,2.986,-0.175
2987,2.987,-0.1705
2988,2.988,-0.156
2989,2.989,-0.1555
2990,2.99,-0.161
2991,2.991,-0.1575
2992,2.992,-0.1585
2993,2.993,-0.155
2994,2.994,-0.149
2995,2.995,-0.158
2996,2.996,-0.1715
2997,2.997,-0.1635
2998,2.998,-0.1565
2999,2.999,-0.1495
3000,3.0,-0.1525
3001,3.001,-0.16
3002,3.0020000000000002,-0.1555
3003,3.003,-0.1635
3004,3.004,-0.177
3005,3.005,-0.1815
3006,3.0060000000000002,-0.15
3007,3.007,-0.152
3008,3.008,-0.1855
3009,3.009,-0.187
3010,3.0100000000000002,-0.1765
3011,3.011,-0.164
3012,3.012,-0.158
3013,3.013,-0.161
3014,3.0140000000000002,-0.1715
3015,3.015,-0.1735
3016,3.016,-0.182
3017,3.017,-0.1885
3018,3.0180000000000002,-0.1875
3019,3.019,-0.189
3020,3.02,-0.182
3021,3.021,-0.1825
3022,3.0220000000000002,-0.19
3023,3.023,-0.195
3024,3.024,-0.1965
3025,3.025,-0.19
3026,3.0260000000000002,-0.205
3027,3.027,-0.2135
3028,3.028,-0.198
3029,3.029,-0.197
3030,3.0300000000000002,-0.2065
3031,3.031,-0.2155
3032,3.032,-0.2125
3033,3.033,-0.212
3034,3.0340000000000003,-0.216
3035,3.035,-0.2175
3036,3.036,-0.23
3037,3.037,-0.2355
3038,3.0380000000000003,-0.2385
3039,3.039,-0.2435
3040,3.04,-0.247
3041,3.041,-0.249
3042,3.0420000000000003,-0.249
3043,3.043,-0.261
3044,3.044,-0.2705
3045,3.045,-0.271
3046,3.0460000000000003,-0.272
3047,3.047,-0.2755
3048,3.048,-0.275
3049,3.049,-0.2725
3050,3.0500000000000003,-0.272
3051,3.051,-0.266
3052,3.052,-0.2755
3053,3.053,-0.2925
3054,3.0540000000000003,-0.294
3055,3.055,-0.2875
3056,3.056,-0.284
3057,3.057,-0.281
3058,3.0580000000000003,-0.2995
3059,3.059,-0.3185
3060,3.06,-0.314
3061,3.061,-0.3125
3062,3.0620000000000003,-0.316
3063,3.063,-0.321
3064,3.064,-0.322
3065,3.065,-0.333
3066,3.0660000000000003,-0.3375
3067,3.067,-0.3335
3068,3.068,-0.3445
3069,3.069,-0.337
3070,3.0700000000000003,-0.335
3071,3.071,-0.3285
3072,3.072,-0.3185
3073,3.073,-0.352
3074,3.074,-0.38
3075,3.075,-0.3815
3076,3.076,-0.3775
3077,3.077,-0.3675
3078,3.078,-0.354
3079,3.079,-0.3725
3080,3.08,-0.374
3081,3.081,-0.378
3082,3.082,-0.3875
3083,3.083,-0.366
3084,3.084,-0.386
3085,3.085,-0.405
3086,3.086,-0.405
3087,3.087,-0.3955
3088,3.088,-0.386
3089,3.089,-0.386
3090,3.09,-0.3845
3091,3.091,-0.387
3092,3.092,-0.383
3093,3.093,-0.3825
3094,3.094,-0.3855
3095,3.095,-0.3875
3096,3.096,-0.3885
3097,3.097,-0.3875
3098,3.098,-0.3865
3099,3.099,-0.383
3100,3.1,-0.383
3101,3.101,-0.394
3102,3.102,-0.3995
3103,3.103,-0.4005
3104,3.104,-0.402
3105,3.105,-0.3965
3106,3.106,-0.396
3107,3.107,-0.4005
3108,3.108,-0.4105
3109,3.109,-0.4045
3110,3.11,-0.3855
3111,3.111,-0.389
3112,3.112,-0.394
3113,3.113,-0.393
3114,3.114,-0.3935
3115,3.115,-0.394
3116,3.116,-0.3975
3117,3.117,-0.39
3118,3.118,-0.391
3119,3.119,-0.3995
3120,3.12,-0.4
3121,3.121,-0.3945
3122,3.122,-0.3825
3123,3.123,-0.385
3124,3.124,-0.385
3125,3.125,-0.388
3126,3.126,-0.401
3127,3.1270000000000002,-0.3985
3128,3.128,-0.3875
3129,3.129,-0.384
3130,3.13,-0.38
3131,3.1310000000000002,-0.3715
3132,3.132,-0.3655
3133,3.133,-0.3685
3134,3.134,-0.3695
3135,3.1350000000000002,-0.3605
3136,3.136,-0.3685
3137,3.137,-0.3695
3138,3.138,-0.364
3139,3.1390000000000002,-0.365
3140,3.14,-0.3655
3141,3.141,-0.3665
3142,3.142,-0.364
3143,3.1430000000000002,-0.3585
3144,3.144,-0.359
3145,3.145,-0.364
3146,3.146,-0.361
3147,3.1470000000000002,-0.359
3148,3.148,-0.356
3149,3.149,-0.357
3150,3.15,-0.354
3151,3.1510000000000002,-0.352
3152,3.152,-0.352
3153,3.153,-0.3475
3154,3.154,-0.343
3155,3.1550000000000002,-0.339
3156,3.156,-0.338
3157,3.157,-0.337
3158,3.158,-0.3355
3159,3.1590000000000003,-0.3265
3160,3.16,-0.3125
3161,3.161,-0.31
3162,3.162,-0.322
3163,3.1630000000000003,-0.3235
3164,3.164,-0.3385
3165,3.165,-0.338
3166,3.166,-0.3195
3167,3.1670000000000003,-0.307
3168,3.168,-0.2835
3169,3.169,-0.295
3170,3.17,-0.332
3171,3.1710000000000003,-0.3145
3172,3.172,-0.2955
3173,3.173,-0.3135
3174,3.174,-0.308
3175,3.1750000000000003,-0.2975
3176,3.176,-0.308
3177,3.177,-0.312
3178,3.178,-0.3055
3179,3.1790000000000003,-0.302
3180,3.18,-0.295
3181,3.181,-0.2955
3182,3.182,-0.288
3183,3.1830000000000003,-0.286
3184,3.184,-0.286
3185,3.185,-0.2785
3186,3.186,-0.29
3187,3.1870000000000003,-0.2825
3188,3.188,-0.2645
3189,3.189,-0.2635
3190,3.19,-0.274
3191,3.1910000000000003,-0.268
3192,3.192,-0.259
3193,3.193,-0.2605
3194,3.194,-0.254
3195,3.1950000000000003,-0.2605
3196,3.196,-0.2655
3197,3.197,-0.259
3198,3.198,-0.2605
3199,3.1990000000000003,-0.2635
3200,3.2,-0.2625
3201,3.201,-0.2595
3202,3.202,-0.262
3203,3.203,-0.2625
3204,3.204,-0.261
3205,3.205,-0.2595
3206,3.206,-0.2525
3207,3.207,-0.2525
3208,3.208,-0.2535
3209,3.209,-0.2515
3210,3.21,-0.2505
3211,3.211,-0.246
3212,3.212,-0.243
3213,3.213,-0.244
3214,3.214,-0.2405
3215,3.215,-0.2405
3216,3.216,-0.246
3217,3.217,-0.242
3218,3.218,-0.2455
3219,3.219,-0.248
3220,3.22,-0.245
3221,3.221,-0.2445
3222,3.222,-0.2405
3223,3.223,-0.2375
3224,3.224,-0.2395
3225,3.225,-0.2405
3226,3.226,-0.234
3227,3.227,-0.2305
3228,3.228,-0.229
3229,3.229,-0.236
3230,3.23,-0.2365
3231,3.231,-0.2275
3232,3.232,-0.222
3233,3.233,-0.22
3234,3.234,-0.222
3235,3.235,-0.217
3236,3.236,-0.2235
3237,3.237,-0.2225
3238,3.238,-0.2195
3239,3.239,-0.228
3240,3.24,-0.2265
3241,3.241,-0.2315
3242,3.242,-0.234
3243,3.243,-0.2295
3244,3.244,-0.2235
3245,3.245,-0.2225
3246,3.246,-0.2265
3247,3.247,-0.2275
3248,3.248,-0.227
3249,3.249,-0.2325
3250,3.25,-0.226
3251,3.251,-0.218
3252,3.2520000000000002,-0.231
3253,3.253,-0.232
3254,3.254,-0.227
3255,3.255,-0.2245
3256,3.2560000000000002,-0.2295
3257,3.257,-0.239
3258,3.258,-0.2305
3259,3.259,-0.2175
3260,3.2600000000000002,-0.2225
3261,3.261,-0.2285
3262,3.262,-0.2315
3263,3.263,-0.233
3264,3.2640000000000002,-0.2325
3265,3.265,-0.2325
3266,3.266,-0.2255
3267,3.267,-0.2275
3268,3.2680000000000002,-0.221
3269,3.269,-0.217
3270,3.27,-0.2175
3271,3.271,-0.22
3272,3.2720000000000002,-0.234
3273,3.273,-0.2385
3274,3.274,-0.2315
3275,3.275,-0.2205
3276,3.2760000000000002,-0.2205
3277,3.277,-0.221
3278,3.278,-0.2315
3279,3.279,-0.241
3280,3.2800000000000002,-0.23
3281,3.281,-0.228
3282,3.282,-0.2325
3283,3.283,-0.227
3284,3.2840000000000003,-0.2335
3285,3.285,-0.237
3286,3.286,-0.2175
3287,3.287,-0.2075
3288,3.2880000000000003,-0.217
3289,3.289,-0.2195
3290,3.29,-0.2145
3291,3.291,-0.21
3292,3.2920000000000003,-0.209
3293,3.293,-0.2055
3294,3.294,-0.1995
3295,3.295,-0.2005
3296,3.2960000000000003,-0.199
3297,3.297,-0.199
3298,3.298,-0.197
3299,3.299,-0.197
3300,3.3000000000000003,-0.207
3301,3.301,-0.2115
3302,3.302,-0.208
3303,3.303,-0.1985
3304,3.3040000000000003,-0.201
3305,3.305,-0.201
3306,3.306,-0.2005
3307,3.307,-0.2045
3308,3.3080000000000003,-0.19
3309,3.309,-0.173
3310,3.31,-0.177
3311,3.311,-0.2045
3312,3.3120000000000003,-0.2135
3313,3.313,-0.2085
3314,3.314,-0.1975
3315,3.315,-0.18
3316,3.3160000000000003,-0.1945
3317,3.317,-0.2105
3318,3.318,-0.2025
3319,3.319,-0.181
3320,3.3200000000000003,-0.183
3321,3.321,-0.194
3322,3.322,-0.1915
3323,3.323,-0.188
3324,3.3240000000000003,-0.183
3325,3.325,-0.1885
3326,3.326,-0.1865
3327,3.327,-0.1915
3328,3.3280000000000003,-0.1915
3329,3.329,-0.1655
3330,3.33,-0.1575
3331,3.331,-0.174
3332,3.332,-0.1605
3333,3.333,-0.165
3334,3.334,-0.175
3335,3.335,-0.1515
3336,3.336,-0.1615
3337,3.337,-0.1635
3338,3.338,-0.1615
3339,3.339,-0.158
3340,3.34,-0.1535
3341,3.341,-0.1725
3342,3.342,-0.167
3343,3.343,-0.1535
3344,3.344,-0.1555
3345,3.345,-0.149
3346,3.346,-0.141
3347,3.347,-0.1505
3348,3.348,-0.154
3349,3.349,-0.149
3350,3.35,-0.1425
3351,3.351,-0.144
3352,3.352,-0.147
3353,3.353,-0.144
3354,3.354,-0.153
3355,3.355,-0.149
3356,3.356,-0.1395
3357,3.357,-0.15
3358,3.358,-0.1555
3359,3.359,-0.148
3360,3.36,-0.1395
3361,3.361,-0.141
3362,3.362,-0.147
3363,3.363,-0.1365
3364,3.364,-0.128
3365,3.365,-0.1295
3366,3.366,-0.126
3367,3.367,-0.104
3368,3.368,-0.105
3369,3.369,-0.14
3370,3.37,-0.15
3371,3.371,-0.146
3372,3.372,-0.1355
3373,3.373,-0.126
3374,3.374,-0.1225
3375,3.375,-0.1185
3376,3.376,-0.1195
3377,3.3770000000000002,-0.1215
3378,3.378,-0.1275
3379,3.379,-0.125
3380,3.38,-0.1265
3381,3.3810000000000002,-0.1235
3382,3.382,-0.104
3383,3.383,-0.104
3384,3.384,-0.1195
3385,3.3850000000000002,-0.1235
3386,3.386,-0.1185
3387,3.387,-0.1115
3388,3.388,-0.1055
3389,3.3890000000000002,-0.1045
3390,3.39,-0.1075
3391,3.391,-0.1025
3392,3.392,-0.096
3393,3.3930000000000002,-0.093
3394,3.394,-0.087
3395,3.395,-0.089
3396,3.396,-0.083
3397,3.3970000000000002,-0.0765
3398,3.398,-0.0705
3399,3.399,-0.076
3400,3.4,-0.0775
3401,3.4010000000000002,-0.06
3402,3.402,-0.064
3403,3.403,-0.0585
3404,3.404,-0.055
3405,3.4050000000000002,-0.0565
3406,3.406,-0.049
3407,3.407,-0.049
3408,3.408,-0.0455
3409,3.4090000000000003,-0.047
3410,3.41,-0.0445
3411,3.411,-0.035
3412,3.412,-0.03
3413,3.4130000000000003,-0.02
3414,3.414,-0.014
3415,3.415,-0.011
3416,3.416,-0.0035
3417,3.4170000000000003,-0.02
3418,3.418,-0.032
3419,3.419,-0.0195
3420,3.42,-0.014
3421,3.4210000000000003,-0.0275
3422,3.422,-0.05
3423,3.423,-0.0465
3424,3.424,-0.0415
3425,3.4250000000000003,-0.049
3426,3.426,-0.0445
3427,3.427,-0.047
3428,3.428,-0.0525
3429,3.4290000000000003,-0.0475
3430,3.43,-0.0395
3431,3.431,-0.021
3432,3.432,-0.0295
3433,3.4330000000000003,-0.0545
3434,3.434,-0.045
3435,3.435,-0.035
3436,3.436,-0.036
3437,3.4370000000000003,-0.0365
3438,3.438,-0.0445
3439,3.439,-0.0495
3440,3.44,-0.046
3441,3.4410000000000003,-0.044
3442,3.442,-0.051
3443,3.443,-0.049
3444,3.444,-0.047
3445,3.4450000000000003,-0.0465
3446,3.446,-0.0415
3447,3.447,-0.044
3448,3.448,-0.0395
3449,3.4490000000000003,-0.0385
3450,3.45,-0.031
3451,3.451,-0.0185
3452,3.452,-0.0205
3453,3.4530000000000003,-0.0235
3454,3.454,-0.032
3455,3.455,-0.0155
3456,3.456,-0.0235
3457,3.457,-0.045
3458,3.458,-0.0155
3459,3.459,-0.0135
3460,3.46,-0.0355
3461,3.461,-0.053
3462,3.462,-0.062
3463,3.463,-0.0625
3464,3.464,-0.064
3465,3.465,-0.059
3466,3.466,-0.0495
3467,3.467,-0.0495
3468,3.468,-0.052
3469,3.469,-0.0515
3470,3.47,-0.056
3471,3.471,-0.0615
3472,3.472,-0.0655
3473,3.473,-0.0745
3474,3.474,-0.0775
3475,3.475,-0.078
3476,3.476,-0.09
3477,3.477,-0.0995
3478,3.478,-0.1105
3479,3.479,-0.115
3480,3.48,-0.1145
3481,3.481,-0.119
3482,3.482,-0.121
3483,3.483,-0.1275
3484,3.484,-0.139
3485,3.485,-0.1395
3486,3.486,-0.1385
3487,3.487,-0.1395
3488,3.488,-0.142
3489,3.489,-0.1475
3490,3.49,-0.1535
3491,3.491,-0.159
3492,3.492,-0.157
3493,3.493,-0.162
3494,3.494,-0.1615
3495,3.495,-0.1595
3496,3.496,-0.1695
3497,3.497,-0.1735
3498,3.498,-0.168
3499,3.499,-0.166
3500,3.5,-0.172
3501,3.501,-0.1755
3502,3.5020000000000002,-0.1705
3503,3.503,-0.1715
3504,3.504,-0.1805
3505,3.505,-0.178
3506,3.5060000000000002,-0.174
3507,3.507,-0.174
3508,3.508,-0.174
3509,3.509,-0.1755
3510,3.5100000000000002,-0.1735
3511,3.511,-0.1725
3512,3.512,-0.173
3513,3.513,-0.173
3514,3.5140000000000002,-0.175
3515,3.515,-0.1765
3516,3.516,-0.178
3517,3.517,-0.182
3518,3.5180000000000002,-0.1835
3519,3.519,-0.1795
3520,3.52,-0.17
3521,3.521,-0.168
3522,3.5220000000000002,-0.1785
3523,3.523,-0.1835
3524,3.524,-0.185
3525,3.525,-0.1785
3526,3.5260000000000002,-0.173
3527,3.527,-0.1725
3528,3.528,-0.174
3529,3.529,-0.1705
3530,3.5300000000000002,-0.1675
3531,3.531,-0.161
3532,3.532,-0.1515
3533,3.533,-0.1435
3534,3.5340000000000003,-0.158
3535,3.535,-0.175
3536,3.536,-0.153
3537,3.537,-0.147
3538,3.5380000000000003,-0.1485
3539,3.539,-0.167
3540,3.54,-0.1695
3541,3.541,-0.1555
3542,3.5420000000000003,-0.1635
3543,3.543,-0.1615
3544,3.544,-0.1735
3545,3.545,-0.186
3546,3.5460000000000003,-0.1935
3547,3.547,-0.2065
3548,3.548,-0.228
3549,3.549,-0.2425
3550,3.5500000000000003,-0.2535
3551,3.551,-0.275
3552,3.552,-0.2915
3553,3.553,-0.3165
3554,3.5540000000000003,-0.337
3555,3.555,-0.3505
3556,3.556,-0.363
3557,3.557,-0.373
3558,3.5580000000000003,-0.385
3559,3.559,-0.4
3560,3.56,-0.4145
3561,3.561,-0.423
3562,3.5620000000000003,-0.427
3563,3.563,-0.4385
3564,3.564,-0.455
3565,3.565,-0.447
3566,3.5660000000000003,-0.4355
3567,3.567,-0.4335
3568,3.568,-0.435
3569,3.569,-0.4395
3570,3.5700000000000003,-0.431
3571,3.571,-0.42
3572,3.572,-0.408
3573,3.573,-0.397
3574,3.5740000000000003,-0.3825
3575,3.575,-0.3675
3576,3.576,-0.3505
3577,3.577,-0.3345
3578,3.5780000000000003,-0.337
3579,3.579,-0.333
3580,3.58,-0.3175
3581,3.581,-0.2995
3582,3.5820000000000003,-0.276
3583,3.583,-0.2535
3584,3.584,-0.2405
3585,3.585,-0.227
3586,3.586,-0.217
3587,3.587,-0.219
3588,3.588,-0.2235
3589,3.589,-0.227
3590,3.59,-0.2395
3591,3.591,-0.256
3592,3.592,-0.289
3593,3.593,-0.3365
3594,3.594,-0.366
3595,3.595,-0.398
3596,3.596,-0.415
3597,3.597,-0.4255
3598,3.598,-0.4405
3599,3.599,-0.467
3600,3.6,-0.51
3601,3.601,-0.546
3602,3.602,-0.5885
3603,3.603,-0.616
3604,3.604,-0.619
3605,3.605,-0.617
3606,3.606,-0.6325
3607,3.607,-0.644
3608,3.608,-0.6115
3609,3.609,-0.6065
3610,3.61,-0.615
3611,3.611,-0.5895
3612,3.612,-0.591
3613,3.613,-0.592
3614,3.614,-0.5755
3615,3.615,-0.5515
3616,3.616,-0.518
3617,3.617,-0.497
3618,3.618,-0.475
3619,3.619,-0.451
3620,3.62,-0.438
3621,3.621,-0.44
3622,3.622,-0.465
3623,3.623,-0.442
3624,3.624,-0.4285
3625,3.625,-0.481
3626,3.626,-0.4925
3627,3.6270000000000002,-0.4805
3628,3.628,-0.467
3629,3.629,-0.44
3630,3.63,-0.42
3631,3.6310000000000002,-0.392
3632,3.632,-0.3735
3633,3.633,-0.389
3634,3.634,-0.3945
3635,3.6350000000000002,-0.3825
3636,3.636,-0.376
3637,3.637,-0.3695
3638,3.638,-0.3615
3639,3.6390000000000002,-0.353
3640,3.64,-0.355
3641,3.641,-0.3605
3642,3.642,-0.3605
3643,3.6430000000000002,-0.3665
3644,3.644,-0.37
3645,3.645,-0.382
3646,3.646,-0.3725
3647,3.6470000000000002,-0.3475
3648,3.648,-0.3615
3649,3.649,-0.3685
3650,3.65,-0.357
3651,3.6510000000000002,-0.342
3652,3.652,-0.3255
3653,3.653,-0.3155
3654,3.654,-0.3035
3655,3.6550000000000002,-0.295
3656,3.656,-0.2815
3657,3.657,-0.27
3658,3.658,-0.261
3659,3.6590000000000003,-0.2435
3660,3.66,-0.2265
3661,3.661,-0.2085
3662,3.662,-0.192
3663,3.6630000000000003,-0.1845
3664,3.664,-0.1845
3665,3.665,-0.1815
3666,3.666,-0.174
3667,3.6670000000000003,-0.1605
3668,3.668,-0.152
3669,3.669,-0.142
3670,3.67,-0.1335
3671,3.6710000000000003,-0.119
3672,3.672,-0.113
3673,3.673,-0.139
3674,3.674,-0.1365
3675,3.6750000000000003,-0.1265
3676,3.676,-0.1245
3677,3.677,-0.1235
3678,3.678,-0.1255
3679,3.6790000000000003,-0.126
3680,3.68,-0.134
3681,3.681,-0.126
3682,3.682,-0.1205
3683,3.6830000000000003,-0.123
3684,3.684,-0.1235
3685,3.685,-0.1265
3686,3.686,-0.1235
3687,3.6870000000000003,-0.1165
3688,3.688,-0.107
3689,3.689,-0.097
3690,3.69,-0.0955
3691,3.6910000000000003,-0.0815
3692,3.692,-0.0905
3693,3.693,-0.116
3694,3.694,-0.1195
3695,3.6950000000000003,-0.115
3696,3.696,-0.1065
3697,3.697,-0.1175
3698,3.698,-0.1235
3699,3.6990000000000003,-0.1095
3700,3.7,-0.1155
3701,3.701,-0.126
3702,3.702,-0.1225
3703,3.7030000000000003,-0.1095
3704,3.704,-0.1055
3705,3.705,-0.1235
3706,3.706,-0.1295
3707,3.7070000000000003,-0.1045
3708,3.708,-0.0945
3709,3.709,-0.117
3710,3.71,-0.125
3711,3.7110000000000003,-0.116
3712,3.712,-0.107
3713,3.713,-0.1125
3714,3.714,-0.1125
3715,3.715,-0.1145
3716,3.716,-0.1255
3717,3.717,-0.1155
3718,3.718,-0.1115
3719,3.719,-0.1365
3720,3.72,-0.147
3721,3.721,-0.141
3722,3.722,-0.1415
3723,3.723,-0.138
3724,3.724,-0.1415
3725,3.725,-0.1415
3726,3.726,-0.145
3727,3.727,-0.142
3728,3.728,-0.1385
3729,3.729,-0.1435
3730,3.73,-0.141
3731,3.731,-0.139
3732,3.732,-0.1365
3733,3.733,-0.1365
3734,3.734,-0.136
3735,3.735,-0.1385
3736,3.736,-0.14
3737,3.737,-0.143
3738,3.738,-0.1475
3739,3.739,-0.145
3740,3.74,-0.1465
3741,3.741,-0.149
3742,3.742,-0.1485
3743,3.743,-0.148
3744,3.744,-0.1545
3745,3.745,-0.1555
3746,3.746,-0.153
3747,3.747,-0.1535
3748,3.748,-0.1495
3749,3.749,-0.1575
3750,3.75,-0.148
3751,3.751,-0.14
3752,3.7520000000000002,-0.1495
3753,3.753,-0.1455
3754,3.754,-0.144
3755,3.755,-0.144
3756,3.7560000000000002,-0.1495
3757,3.757,-0.1625
3758,3.758,-0.172
3759,3.759,-0.1725
3760,3.7600000000000002,-0.1705
3761,3.761,-0.1655
3762,3.762,-0.141
3763,3.763,-0.143
3764,3.7640000000000002,-0.1795
3765,3.765,-0.1855
3766,3.766,-0.186
3767,3.767,-0.1835
3768,3.7680000000000002,-0.1765
3769,3.769,-0.182
3770,3.77,-0.1795
3771,3.771,-0.189
3772,3.7720000000000002,-0.1875
3773,3.773,-0.188
3774,3.774,-0.2075
3775,3.775,-0.2125
3776,3.7760000000000002,-0.2105
3777,3.777,-0.2085
3778,3.778,-0.211
3779,3.779,-0.2135
3780,3.7800000000000002,-0.217
3781,3.781,-0.2215
3782,3.782,-0.2245
3783,3.783,-0.223
3784,3.7840000000000003,-0.227
3785,3.785,-0.228
3786,3.786,-0.2315
3787,3.787,-0.2405
3788,3.7880000000000003,-0.2375
3789,3.789,-0.234
3790,3.79,-0.2345
3791,3.791,-0.234
3792,3.7920000000000003,-0.236
3793,3.793,-0.234
3794,3.794,-0.234
3795,3.795,-0.24
3796,3.7960000000000003,-0.2315
3797,3.797,-0.2505
3798,3.798,-0.2665
3799,3.799,-0.262
3800,3.8000000000000003,-0.2695
3801,3.801,-0.2695
3802,3.802,-0.2725
3803,3.803,-0.2705
3804,3.8040000000000003,-0.265
3805,3.805,-0.277
3806,3.806,-0.289
3807,3.807,-0.289
3808,3.8080000000000003,-0.2965
3809,3.809,-0.2965
3810,3.81,-0.2895
3811,3.811,-0.288
3812,3.8120000000000003,-0.297
3813,3.813,-0.3045
3814,3.814,-0.304
3815,3.815,-0.309
3816,3.8160000000000003,-0.309
3817,3.817,-0.3085
3818,3.818,-0.2975
3819,3.819,-0.313
3820,3.8200000000000003,-0.338
3821,3.821,-0.3315
3822,3.822,-0.34
3823,3.823,-0.349
3824,3.8240000000000003,-0.351
3825,3.825,-0.3535
3826,3.826,-0.3355
3827,3.827,-0.3325
3828,3.8280000000000003,-0.351
3829,3.829,-0.349
3830,3.83,-0.341
3831,3.831,-0.342
3832,3.8320000000000003,-0.3505
3833,3.833,-0.3535
3834,3.834,-0.357
3835,3.835,-0.364
3836,3.8360000000000003,-0.3565
3837,3.837,-0.3575
3838,3.838,-0.364
3839,3.839,-0.368
3840,3.84,-0.3815
3841,3.841,-0.386
3842,3.842,-0.382
3843,3.843,-0.3845
3844,3.844,-0.3845
3845,3.845,-0.3825
3846,3.846,-0.3765
3847,3.847,-0.3825
3848,3.848,-0.387
3849,3.849,-0.3875
3850,3.85,-0.373
3851,3.851,-0.352
3852,3.852,-0.385
3853,3.853,-0.406
3854,3.854,-0.396
3855,3.855,-0.3905
3856,3.856,-0.3925
3857,3.857,-0.3925
3858,3.858,-0.3895
3859,3.859,-0.3925
3860,3.86,-0.396
3861,3.861,-0.407
3862,3.862,-0.394
3863,3.863,-0.3945
3864,3.864,-0.4085
3865,3.865,-0.4065
3866,3.866,-0.41
3867,3.867,-0.4075
3868,3.868,-0.409
3869,3.869,-0.4065
3870,3.87,-0.401
3871,3.871,-0.4035
3872,3.872,-0.4025
3873,3.873,-0.4015
3874,3.874,-0.4005
3875,3.875,-0.4
3876,3.876,-0.4
3877,3.8770000000000002,-0.402
3878,3.878,-0.404
3879,3.879,-0.4045
3880,3.88,-0.395
3881,3.8810000000000002,-0.375
3882,3.882,-0.3785
3883,3.883,-0.4045
3884,3.884,-0.401
3885,3.8850000000000002,-0.38
3886,3.886,-0.396
3887,3.887,-0.4105
3888,3.888,-0.4045
3889,3.8890000000000002,-0.3975
3890,3.89,-0.3995
3891,3.891,-0.388
3892,3.892,-0.386
3893,3.8930000000000002,-0.405
3894,3.894,-0.383
3895,3.895,-0.3775
3896,3.896,-0.3935
3897,3.8970000000000002,-0.392
3898,3.898,-0.386
3899,3.899,-0.3825
3900,3.9,-0.3835
3901,3.9010000000000002,-0.3845
3902,3.902,-0.369
3903,3.903,-0.363
3904,3.904,-0.3925
3905,3.9050000000000002,-0.394
3906,3.906,-0.3765
3907,3.907,-0.3635
3908,3.908,-0.3645
3909,3.9090000000000003,-0.38
3910,3.91,-0.3775
3911,3.911,-0.3655
3912,3.912,-0.357
3913,3.9130000000000003,-0.3625
3914,3.914,-0.3635
3915,3.915,-0.358
3916,3.916,-0.361
3917,3.9170000000000003,-0.372
3918,3.918,-0.3585
3919,3.919,-0.3475
3920,3.92,-0.357
3921,3.9210000000000003,-0.359
3922,3.922,-0.3605
3923,3.923,-0.337
3924,3.924,-0.338
3925,3.9250000000000003,-0.363
3926,3.926,-0.361
3927,3.927,-0.351
3928,3.928,-0.3465
3929,3.9290000000000003,-0.3435
3930,3.93,-0.3345
3931,3.931,-0.334
3932,3.932,-0.326
3933,3.9330000000000003,-0.314
3934,3.934,-0.3145
3935,3.935,-0.3025
3936,3.936,-0.3165
3937,3.9370000000000003,-0.3355
3938,3.938,-0.333
3939,3.939,-0.3345
3940,3.94,-0.3265
3941,3.9410000000000003,-0.333
3942,3.942,-0.3335
3943,3.943,-0.3215
3944,3.944,-0.314
3945,3.9450000000000003,-0.3065
3946,3.946,-0.309
3947,3.947,-0.302
3948,3.948,-0.2925
3949,3.9490000000000003,-0.314
3950,3.95,-0.3125
3951,3.951,-0.289
3952,3.952,-0.3005
3953,3.9530000000000003,-0.298
3954,3.954,-0.2935
3955,3.955,-0.296
3956,3.956,-0.2875
3957,3.9570000000000003,-0.2905
3958,3.958,-0.292
3959,3.959,-0.29
3960,3.96,-0.29
3961,3.9610000000000003,-0.292
3962,3.962,-0.2915
3963,3.963,-0.285
3964,3.964,-0.2905
3965,3.9650000000000003,-0.284
3966,3.966,-0.277
3967,3.967,-0.274
3968,3.968,-0.2715
3969,3.969,-0.2985
3970,3.97,-0.289
3971,3.971,-0.2705
3972,3.972,-0.273
3973,3.973,-0.2635
3974,3.974,-0.263
3975,3.975,-0.2725
3976,3.976,-0.2735
3977,3.977,-0.27
3978,3.978,-0.273
3979,3.979,-0.27
3980,3.98,-0.2735
3981,3.981,-0.285
3982,3.982,-0.282
3983,3.983,-0.2805
3984,3.984,-0.284
3985,3.985,-0.2835
3986,3.986,-0.2845
3987,3.987,-0.283
3988,3.988,-0.2825
3989,3.989,-0.282
3990,3.99,-0.2865
3991,3.991,-0.28
3992,3.992,-0.2715
3993,3.993,-0.273
3994,3.994,-0.2725
3995,3.995,-0.274
3996,3.996,-0.2695
3997,3.997,-0.2675
3998,3.998,-0.2775
3999,3.999,-0.28
4000,4.0,-0.273
4001,4.001,-0.255
4002,4.002,-0.2565
4003,4.003,-0.285
4004,4.0040000000000004,-0.2965
4005,4.005,-0.2805
4006,4.006,-0.26
4007,4.007,-0.2625
4008,4.008,-0.2705
4009,4.009,-0.2815
4010,4.01,-0.294
4011,4.011,-0.285
4012,4.0120000000000005,-0.2755
4013,4.013,-0.268
4014,4.014,-0.2635
4015,4.015,-0.263
4016,4.016,-0.2665
4017,4.017,-0.272
4018,4.018,-0.2675
4019,4.019,-0.2645
4020,4.0200000000000005,-0.266
4021,4.021,-0.268
4022,4.022,-0.2695
4023,4.023,-0.2665
4024,4.024,-0.2675
4025,4.025,-0.2675
4026,4.026,-0.267
4027,4.027,-0.2685
4028,4.0280000000000005,-0.266
4029,4.029,-0.264
4030,4.03,-0.2645
4031,4.031,-0.262
4032,4.032,-0.2585
4033,4.033,-0.252
4034,4.034,-0.2415
4035,4.035,-0.2375
4036,4.0360000000000005,-0.2385
4037,4.037,-0.247
4038,4.038,-0.26
4039,4.039,-0.2625
4040,4.04,-0.2535
4041,4.041,-0.2485
4042,4.042,-0.246
4043,4.043,-0.248
4044,4.0440000000000005,-0.25
4045,4.045,-0.245
4046,4.046,-0.241
4047,4.047,-0.232
4048,4.048,-0.231
4049,4.049,-0.241
4050,4.05,-0.2415
4051,4.051,-0.235
4052,4.0520000000000005,-0.236
4053,4.053,-0.2285
4054,4.054,-0.228
4055,4.055,-0.236
4056,4.056,-0.2365
4057,4.057,-0.2465
4058,4.058,-0.243
4059,4.059,-0.23
4060,4.0600000000000005,-0.223
4061,4.061,-0.2505
4062,4.062,-0.266
4063,4.063,-0.247
4064,4.064,-0.2435
4065,4.065,-0.2395
4066,4.066,-0.2345
4067,4.067,-0.233
4068,4.0680000000000005,-0.233
4069,4.069,-0.234
4070,4.07,-0.2315
4071,4.071,-0.228
4072,4.072,-0.219
4073,4.073,-0.207
4074,4.074,-0.2085
4075,4.075,-0.214
4076,4.0760000000000005,-0.2125
4077,4.077,-0.2125
4078,4.078,-0.2105
4079,4.079,-0.2135
4080,4.08,-0.2195
4081,4.081,-0.221
4082,4.082,-0.223
4083,4.083,-0.225
4084,4.0840000000000005,-0.227
4085,4.085,-0.2265
4086,4.086,-0.2275
4087,4.087,-0.2245
4088,4.088,-0.2225
4089,4.089,-0.2265
4090,4.09,-0.2215
4091,4.091,-0.2195
4092,4.0920000000000005,-0.2265
4093,4.093,-0.2155
4094,4.094,-0.2095
4095,4.095,-0.2125
4096,4.096,-0.217
4097,4.097,-0.206
4098,4.098,-0.182
4099,4.099,-0.1985
4100,4.1,-0.2155
4101,4.101,-0.2075
4102,4.102,-0.1985
4103,4.103,-0.186
4104,4.104,-0.185
4105,4.105,-0.216
4106,4.106,-0.232
4107,4.107,-0.212
4108,4.108,-0.192
4109,4.109,-0.1855
4110,4.11,-0.1935
4111,4.111,-0.1985
4112,4.112,-0.194
4113,4.113,-0.1825
4114,4.114,-0.1815
4115,4.115,-0.1825
4116,4.116,-0.18
4117,4.117,-0.185
4118,4.118,-0.1895
4119,4.119,-0.195
4120,4.12,-0.1895
4121,4.121,-0.18
4122,4.122,-0.171
4123,4.123,-0.179
4124,4.124,-0.1765
4125,4.125,-0.1565
4126,4.126,-0.175
4127,4.127,-0.189
4128,4.128,-0.1805
4129,4.1290000000000004,-0.1785
4130,4.13,-0.172
4131,4.131,-0.1635
4132,4.132,-0.163
4133,4.133,-0.1555
4134,4.134,-0.148
4135,4.135,-0.144
4136,4.136,-0.141
4137,4.1370000000000005,-0.142
4138,4.138,-0.139
4139,4.139,-0.136
4140,4.14,-0.129
4141,4.141,-0.121
4142,4.142,-0.123
4143,4.143,-0.1185
4144,4.144,-0.1035
4145,4.1450000000000005,-0.092
4146,4.146,-0.0775
4147,4.147,-0.089
4148,4.148,-0.1035
4149,4.149,-0.1015
4150,4.15,-0.0965
4151,4.151,-0.091
4152,4.152,-0.109
4153,4.1530000000000005,-0.102
4154,4.154,-0.083
4155,4.155,-0.0755
4156,4.156,-0.058
4157,4.157,-0.058
4158,4.158,-0.047
4159,4.159,-0.052
4160,4.16,-0.072
4161,4.1610000000000005,-0.078
4162,4.162,-0.07
4163,4.163,-0.054
4164,4.164,-0.055
4165,4.165,-0.0605
4166,4.166,-0.0665
4167,4.167,-0.0445
4168,4.168,-0.069
4169,4.1690000000000005,-0.0935
4170,4.17,-0.059
4171,4.171,-0.0705
4172,4.172,-0.081
4173,4.173,-0.0715
4174,4.174,-0.061
4175,4.175,-0.054
4176,4.176,-0.059
4177,4.1770000000000005,-0.055
4178,4.178,-0.051
4179,4.179,-0.047
4180,4.18,-0.0395
4181,4.181,-0.047
4182,4.182,-0.0525
4183,4.183,-0.051
4184,4.184,-0.055
4185,4.1850000000000005,-0.05
4186,4.186,-0.0565
4187,4.187,-0.0605
4188,4.188,-0.055
4189,4.189,-0.0475
4190,4.19,-0.0435
4191,4.191,-0.041
4192,4.192,-0.043
4193,4.1930000000000005,-0.0455
4194,4.194,-0.037
4195,4.195,-0.048
4196,4.196,-0.059
4197,4.197,-0.057
4198,4.198,-0.051
4199,4.199,-0.053
4200,4.2,-0.0615
4201,4.2010000000000005,-0.069
4202,4.202,-0.0715
4203,4.203,-0.0725
4204,4.204,-0.0865
4205,4.205,-0.082
4206,4.206,-0.073
4207,4.207,-0.079
4208,4.208,-0.0805
4209,4.2090000000000005,-0.0845
4210,4.21,-0.093
4211,4.211,-0.0975
4212,4.212,-0.103
4213,4.213,-0.1055
4214,4.214,-0.1025
4215,4.215,-0.103
4216,4.216,-0.116
4217,4.2170000000000005,-0.1305
4218,4.218,-0.131
4219,4.219,-0.1435
4220,4.22,-0.1605
4221,4.221,-0.1605
4222,4.222,-0.1585
4223,4.223,-0.1665
4224,4.224,-0.175
4225,4.225,-0.1635
4226,4.226,-0.1625
4227,4.227,-0.1745
4228,4.228,-0.174
4229,4.229,-0.166
4230,4.23,-0.1595
4231,4.231,-0.179
4232,4.232,-0.209
4233,4.233,-0.21
4234,4.234,-0.201
4235,4.235,-0.204
4236,4.236,-0.2075
4237,4.237,-0.208
4238,4.238,-0.209
4239,4.239,-0.2035
4240,4.24,-0.1975
4241,4.241,-0.19
4242,4.242,-0.183
4243,4.243,-0.194
4244,4.244,-0.204
4245,4.245,-0.1845
4246,4.246,-0.1635
4247,4.247,-0.1835
4248,4.248,-0.2085
4249,4.249,-0.2025
4250,4.25,-0.192
4251,4.251,-0.182
4252,4.252,-0.18
4253,4.253,-0.1975
4254,4.2540000000000004,-0.197
4255,4.255,-0.207
4256,4.256,-0.2175
4257,4.257,-0.209
4258,4.258,-0.205
4259,4.259,-0.1975
4260,4.26,-0.1975
4261,4.261,-0.2055
4262,4.2620000000000005,-0.1975
4263,4.263,-0.179
4264,4.264,-0.1845
4265,4.265,-0.186
4266,4.266,-0.2165
4267,4.267,-0.2165
4268,4.268,-0.1965
4269,4.269,-0.2135
4270,4.2700000000000005,-0.2065
4271,4.271,-0.205
4272,4.272,-0.2035
4273,4.273,-0.2005
4274,4.274,-0.201
4275,4.275,-0.2045
4276,4.276,-0.204
4277,4.277,-0.2005
4278,4.2780000000000005,-0.2015
4279,4.279,-0.1975
4280,4.28,-0.1955
4281,4.281,-0.192
4282,4.282,-0.1875
4283,4.283,-0.1925
4284,4.284,-0.1915
4285,4.285,-0.182
4286,4.2860000000000005,-0.1915
4287,4.287,-0.205
4288,4.288,-0.2195
4289,4.289,-0.24
4290,4.29,-0.2565
4291,4.291,-0.277
4292,4.292,-0.3
4293,4.293,-0.3175
4294,4.2940000000000005,-0.3335
4295,4.295,-0.355
4296,4.296,-0.3635
4297,4.297,-0.37
4298,4.298,-0.383
4299,4.299,-0.4005
4300,4.3,-0.4175
4301,4.301,-0.4325
4302,4.3020000000000005,-0.444
4303,4.303,-0.4525
4304,4.304,-0.4705
4305,4.305,-0.474
4306,4.306,-0.4695
4307,4.307,-0.4665
4308,4.308,-0.4665
4309,4.309,-0.476
4310,4.3100000000000005,-0.4785
4311,4.311,-0.4755
4312,4.312,-0.4765
4313,4.313,-0.471
4314,4.314,-0.4605
4315,4.315,-0.444
4316,4.316,-0.43
4317,4.317,-0.403
4318,4.3180000000000005,-0.388
4319,4.319,-0.3805
4320,4.32,-0.3805
4321,4.321,-0.3905
4322,4.322,-0.338
4323,4.323,-0.315
4324,4.324,-0.3185
4325,4.325,-0.281
4326,4.3260000000000005,-0.249
4327,4.327,-0.2515
4328,4.328,-0.249
4329,4.329,-0.2295
4330,4.33,-0.2315
4331,4.331,-0.2505
4332,4.332,-0.302
4333,4.333,-0.3505
4334,4.3340000000000005,-0.388
4335,4.335,-0.424
4336,4.336,-0.4485
4337,4.337,-0.47
4338,4.338,-0.491
4339,4.339,-0.515
4340,4.34,-0.538
4341,4.341,-0.562
4342,4.3420000000000005,-0.595
4343,4.343,-0.6265
4344,4.344,-0.6405
4345,4.345,-0.64
4346,4.346,-0.6455
4347,4.347,-0.6575
4348,4.348,-0.6555
4349,4.349,-0.6445
4350,4.3500000000000005,-0.6325
4351,4.351,-0.604
4352,4.352,-0.5795
4353,4.353,-0.56
4354,4.354,-0.548
4355,4.355,-0.547
4356,4.356,-0.5345
4357,4.357,-0.5175
4358,4.358,-0.497
4359,4.359,-0.484
4360,4.36,-0.4675
4361,4.361,-0.4545
4362,4.362,-0.451
4363,4.363,-0.4465
4364,4.364,-0.445
4365,4.365,-0.449
4366,4.366,-0.445
4367,4.367,-0.434
4368,4.368,-0.4415
4369,4.369,-0.43
4370,4.37,-0.432
4371,4.371,-0.4405
4372,4.372,-0.426
4373,4.373,-0.4
4374,4.374,-0.382
4375,4.375,-0.397
4376,4.376,-0.388
4377,4.377,-0.3765
4378,4.378,-0.36
4379,4.3790000000000004,-0.356
4380,4.38,-0.3705
4381,4.381,-0.366
4382,4.382,-0.37
4383,4.383,-0.365
4384,4.384,-0.3615
4385,4.385,-0.369
4386,4.386,-0.3715
4387,4.3870000000000005,-0.3675
4388,4.388,-0.3695
4389,4.389,-0.3685
4390,4.39,-0.3615
4391,4.391,-0.3705
4392,4.392,-0.3675
4393,4.393,-0.3505
4394,4.394,-0.305
4395,4.3950000000000005,-0.2915
4396,4.396,-0.3235
4397,4.397,-0.3355
4398,4.398,-0.322
4399,4.399,-0.292
4400,4.4,-0.2825
4401,4.401,-0.273
4402,4.402,-0.253
4403,4.4030000000000005,-0.2405
4404,4.404,-0.2315
4405,4.405,-0.219
4406,4.406,-0.2125
4407,4.407,-0.2065
4408,4.408,-0.193
4409,4.409,-0.1835
4410,4.41,-0.167
4411,4.4110000000000005,-0.1555
4412,4.412,-0.145
4413,4.413,-0.1395
4414,4.414,-0.143
4415,4.415,-0.137
4416,4.416,-0.1355
4417,4.417,-0.1335
4418,4.418,-0.134
4419,4.4190000000000005,-0.1325
4420,4.42,-0.135
4421,4.421,-0.146
4422,4.422,-0.146
4423,4.423,-0.149
4424,4.424,-0.1465
4425,4.425,-0.1415
4426,4.426,-0.1425
4427,4.4270000000000005,-0.1475
4428,4.428,-0.1545
4429,4.429,-0.153
4430,4.43,-0.143
4431,4.431,-0.131
4432,4.432,-0.1385
4433,4.433,-0.137
4434,4.434,-0.1285
4435,4.4350000000000005,-0.1335
4436,4.436,-0.1415
4437,4.437,-0.15
4438,4.438,-0.1305
4439,4.439,-0.1395
4440,4.44,-0.159
4441,4.441,-0.1515
4442,4.442,-0.157
4443,4.4430000000000005,-0.1565
4444,4.444,-0.156
4445,4.445,-0.143
4446,4.446,-0.128
4447,4.447,-0.144
4448,4.448,-0.147
4449,4.449,-0.1435
4450,4.45,-0.149
4451,4.4510000000000005,-0.146
4452,4.452,-0.135
4453,4.453,-0.126
4454,4.454,-0.138
4455,4.455,-0.1415
4456,4.456,-0.1455
4457,4.457,-0.1465
4458,4.458,-0.157
4459,4.4590000000000005,-0.1895
4460,4.46,-0.174
4461,4.461,-0.159
4462,4.462,-0.186
4463,4.463,-0.1835
4464,4.464,-0.1605
4465,4.465,-0.1735
4466,4.466,-0.186
4467,4.4670000000000005,-0.1765
4468,4.468,-0.174
4469,4.469,-0.171
4470,4.47,-0.17
4471,4.471,-0.17
4472,4.472,-0.1735
4473,4.473,-0.1655
4474,4.474,-0.141
4475,4.4750000000000005,-0.161
4476,4.476,-0.1895
4477,4.477,-0.177
4478,4.478,-0.1825
4479,4.479,-0.1985
4480,4.48,-0.1835
4481,4.481,-0.177
4482,4.482,-0.1875
4483,4.483,-0.1945
4484,4.484,-0.1855
4485,4.485,-0.1775
4486,4.486,-0.169
4487,4.487,-0.1745
4488,4.488,-0.183
4489,4.489,-0.178
4490,4.49,-0.164
4491,4.491,-0.156
4492,4.492,-0.185
4493,4.493,-0.169
4494,4.494,-0.178
4495,4.495,-0.2015
4496,4.496,-0.182
4497,4.497,-0.191
4498,4.498,-0.1925
4499,4.499,-0.1985
4500,4.5,-0.2045
4501,4.501,-0.208
4502,4.502,-0.224
4503,4.503,-0.2215
4504,4.5040000000000004,-0.217
4505,4.505,-0.213
4506,4.506,-0.203
4507,4.507,-0.2015
4508,4.508,-0.204
4509,4.509,-0.2055
4510,4.51,-0.212
4511,4.511,-0.2175
4512,4.5120000000000005,-0.2185
4513,4.513,-0.212
4514,4.514,-0.21
4515,4.515,-0.2195
4516,4.516,-0.2235
4517,4.517,-0.2295
4518,4.518,-0.23
4519,4.519,-0.2285
4520,4.5200000000000005,-0.232
4521,4.521,-0.2325
4522,4.522,-0.2355
4523,4.523,-0.241
4524,4.524,-0.229
4525,4.525,-0.23
4526,4.526,-0.257
4527,4.527,-0.2635
4528,4.5280000000000005,-0.2495
4529,4.529,-0.2445
4530,4.53,-0.245
4531,4.531,-0.237
4532,4.532,-0.247
4533,4.533,-0.2615
4534,4.534,-0.2535
4535,4.535,-0.254
4536,4.5360000000000005,-0.268
4537,4.537,-0.275
4538,4.538,-0.279
4539,4.539,-0.276
4540,4.54,-0.284
4541,4.541,-0.271
4542,4.542,-0.26
4543,4.543,-0.2915
4544,4.5440000000000005,-0.3035
4545,4.545,-0.296
4546,4.546,-0.3035
4547,4.547,-0.304
4548,4.548,-0.2955
4549,4.549,-0.305
4550,4.55,-0.302
4551,4.551,-0.301
4552,4.5520000000000005,-0.304
4553,4.553,-0.2965
4554,4.554,-0.301
4555,4.555,-0.3085
4556,4.556,-0.305
4557,4.557,-0.301
4558,4.558,-0.312
4559,4.559,-0.3235
4560,4.5600000000000005,-0.331
4561,4.561,-0.3355
4562,4.562,-0.3415
4563,4.563,-0.3335
4564,4.564,-0.328
4565,4.565,-0.3345
4566,4.566,-0.328
4567,4.567,-0.3465
4568,4.5680000000000005,-0.3565
4569,4.569,-0.3445
4570,4.57,-0.349
4571,4.571,-0.356
4572,4.572,-0.3585
4573,4.573,-0.3545
4574,4.574,-0.358
4575,4.575,-0.361
4576,4.5760000000000005,-0.3645
4577,4.577,-0.3685
4578,4.578,-0.3765
4579,4.579,-0.386
4580,4.58,-0.379
4581,4.581,-0.3765
4582,4.582,-0.377
4583,4.583,-0.379
4584,4.5840000000000005,-0.381
4585,4.585,-0.3795
4586,4.586,-0.3855
4587,4.587,-0.3855
4588,4.588,-0.3765
4589,4.589,-0.375
4590,4.59,-0.374
4591,4.591,-0.369
4592,4.5920000000000005,-0.371
4593,4.593,-0.3665
4594,4.594,-0.362
4595,4.595,-0.368
4596,4.596,-0.3695
4597,4.597,-0.3715
4598,4.598,-0.37
4599,4.599,-0.3715
4600,4.6000000000000005,-0.377
4601,4.601,-0.377
4602,4.602,-0.371
4603,4.603,-0.3525
4604,4.604,-0.3735
4605,4.605,-0.3885
4606,4.606,-0.37
4607,4.607,-0.3705
4608,4.6080000000000005,-0.3635
4609,4.609,-0.361
4610,4.61,-0.3795
4611,4.611,-0.3725
4612,4.612,-0.359
4613,4.613,-0.3525
4614,4.614,-0.3265
4615,4.615,-0.3495
4616,4.616,-0.385
4617,4.617,-0.381
4618,4.618,-0.377
4619,4.619,-0.372
4620,4.62,-0.3715
4621,4.621,-0.367
4622,4.622,-0.3475
4623,4.623,-0.341
4624,4.624,-0.3465
4625,4.625,-0.3525
4626,4.626,-0.3485
4627,4.627,-0.3395
4628,4.628,-0.3405
4629,4.6290000000000004,-0.3325
4630,4.63,-0.3265
4631,4.631,-0.325
4632,4.632,-0.326
4633,4.633,-0.3205
4634,4.634,-0.3095
4635,4.635,-0.309
4636,4.636,-0.3065
4637,4.6370000000000005,-0.309
4638,4.638,-0.3205
4639,4.639,-0.3215
4640,4.64,-0.307
4641,4.641,-0.3045
4642,4.642,-0.3075
4643,4.643,-0.307
4644,4.644,-0.304
4645,4.6450000000000005,-0.2985
4646,4.646,-0.295
4647,4.647,-0.293
4648,4.648,-0.2905
4649,4.649,-0.2855
4650,4.65,-0.281
4651,4.651,-0.281
4652,4.652,-0.2745
4653,4.6530000000000005,-0.2625
4654,4.654,-0.2635
4655,4.655,-0.2715
4656,4.656,-0.2805
4657,4.657,-0.2745
4658,4.658,-0.2675
4659,4.659,-0.2685
4660,4.66,-0.267
4661,4.6610000000000005,-0.2655
4662,4.662,-0.261
4663,4.663,-0.253
4664,4.664,-0.2495
4665,4.665,-0.2545
4666,4.666,-0.259
4667,4.667,-0.256
4668,4.668,-0.255
4669,4.6690000000000005,-0.2465
4670,4.67,-0.2325
4671,4.671,-0.2425
4672,4.672,-0.2445
4673,4.673,-0.2295
4674,4.674,-0.2275
4675,4.675,-0.2325
4676,4.676,-0.2455
4677,4.6770000000000005,-0.262
4678,4.678,-0.2485
4679,4.679,-0.2345
4680,4.68,-0.2455
4681,4.681,-0.2465
4682,4.682,-0.244
4683,4.683,-0.244
4684,4.684,-0.2375
4685,4.6850000000000005,-0.2235
4686,4.686,-0.2105
4687,4.687,-0.227
4688,4.688,-0.232
4689,4.689,-0.235
4690,4.69,-0.2335
4691,4.691,-0.221
4692,4.692,-0.233
4693,4.6930000000000005,-0.224
4694,4.694,-0.22
4695,4.695,-0.2105
4696,4.696,-0.1955
4697,4.697,-0.221
4698,4.698,-0.244
4699,4.699,-0.2635
4700,4.7,-0.27
4701,4.7010000000000005,-0.2545
4702,4.702,-0.2475
4703,4.703,-0.2535
4704,4.704,-0.2475
4705,4.705,-0.2445
4706,4.706,-0.248
4707,4.707,-0.2435
4708,4.708,-0.2375
4709,4.7090000000000005,-0.2315
4710,4.71,-0.226
4711,4.711,-0.2155
4712,4.712,-0.2255
4713,4.713,-0.236
4714,4.714,-0.237
4715,4.715,-0.2405
4716,4.716,-0.244
4717,4.7170000000000005,-0.2495
4718,4.718,-0.245
4719,4.719,-0.2395
4720,4.72,-0.25
4721,4.721,-0.2475
4722,4.722,-0.2405
4723,4.723,-0.2515
4724,4.724,-0.25
4725,4.7250000000000005,-0.244
4726,4.726,-0.237
4727,4.727,-0.231
4728,4.728,-0.225
4729,4.729,-0.2315
4730,4.73,-0.247
4731,4.731,-0.2325
4732,4.732,-0.2195
4733,4.7330000000000005,-0.2275
4734,4.734,-0.2355
4735,4.735,-0.235
4736,4.736,-0.232
4737,4.737,-0.2325
4738,4.738,-0.2345
4739,4.739,-0.2285
4740,4.74,-0.23
4741,4.741,-0.2405
4742,4.742,-0.2345
4743,4.743,-0.2295
4744,4.744,-0.2195
4745,4.745,-0.2055
4746,4.746,-0.211
4747,4.747,-0.2195
4748,4.748,-0.2215
4749,4.749,-0.2295
4750,4.75,-0.2295
4751,4.751,-0.22
4752,4.752,-0.2185
4753,4.753,-0.215
4754,4.7540000000000004,-0.221
4755,4.755,-0.227
4756,4.756,-0.2215
4757,4.757,-0.2235
4758,4.758,-0.225
4759,4.759,-0.2155
4760,4.76,-0.216
4761,4.761,-0.2245
4762,4.7620000000000005,-0.2205
4763,4.763,-0.2205
4764,4.764,-0.2175
4765,4.765,-0.207
4766,4.766,-0.2035
4767,4.767,-0.2065
4768,4.768,-0.2075
4769,4.769,-0.203
4770,4.7700000000000005,-0.1985
4771,4.771,-0.196
4772,4.772,-0.19
4773,4.773,-0.1875
4774,4.774,-0.2035
4775,4.775,-0.213
4776,4.776,-0.201
4777,4.777,-0.1945
4778,4.7780000000000005,-0.2045
4779,4.779,-0.208
4780,4.78,-0.1935
4781,4.781,-0.207
4782,4.782,-0.1985
4783,4.783,-0.1625
4784,4.784,-0.1805
4785,4.785,-0.1835
4786,4.7860000000000005,-0.178
4787,4.787,-0.188
4788,4.788,-0.1855
4789,4.789,-0.1775
4790,4.79,-0.164
4791,4.791,-0.155
4792,4.792,-0.1555
4793,4.793,-0.1535
4794,4.7940000000000005,-0.1805
4795,4.795,-0.198
4796,4.796,-0.1785
4797,4.797,-0.176
4798,4.798,-0.1695
4799,4.799,-0.163
4800,4.8,-0.159
4801,4.801,-0.1615
4802,4.8020000000000005,-0.1695
4803,4.803,-0.167
4804,4.804,-0.1635
4805,4.805,-0.149
4806,4.806,-0.139
4807,4.807,-0.145
4808,4.808,-0.143
4809,4.809,-0.1365
4810,4.8100000000000005,-0.1315
4811,4.811,-0.1295
4812,4.812,-0.1415
4813,4.813,-0.1445
4814,4.814,-0.1405
4815,4.815,-0.1395
4816,4.816,-0.139
4817,4.817,-0.1445
4818,4.8180000000000005,-0.145
4819,4.819,-0.138
4820,4.82,-0.134
4821,4.821,-0.1385
4822,4.822,-0.139
4823,4.823,-0.136
4824,4.824,-0.135
4825,4.825,-0.1305
4826,4.8260000000000005,-0.1285
4827,4.827,-0.1225
4828,4.828,-0.113
4829,4.829,-0.1155
4830,4.83,-0.118
4831,4.831,-0.106
4832,4.832,-0.1005
4833,4.833,-0.1015
4834,4.8340000000000005,-0.109
4835,4.835,-0.1195
4836,4.836,-0.1135
4837,4.837,-0.119
4838,4.838,-0.129
4839,4.839,-0.1295
4840,4.84,-0.128
4841,4.841,-0.128
4842,4.8420000000000005,-0.133
4843,4.843,-0.1365
4844,4.844,-0.132
4845,4.845,-0.128
4846,4.846,-0.122
4847,4.847,-0.115
4848,4.848,-0.115
4849,4.849,-0.1175
4850,4.8500000000000005,-0.1265
4851,4.851,-0.1285
4852,4.852,-0.1195
4853,4.853,-0.117
4854,4.854,-0.1225
4855,4.855,-0.1265
4856,4.856,-0.125
4857,4.857,-0.123
4858,4.8580000000000005,-0.123
4859,4.859,-0.123
4860,4.86,-0.1225
4861,4.861,-0.119
4862,4.862,-0.116
4863,4.863,-0.1145
4864,4.864,-0.108
4865,4.865,-0.1005
4866,4.866,-0.0925
4867,4.867,-0.087
4868,4.868,-0.081
4869,4.869,-0.0745
4870,4.87,-0.065
4871,4.871,-0.057
4872,4.872,-0.053
4873,4.873,-0.048
4874,4.874,-0.0485
4875,4.875,-0.0455
4876,4.876,-0.0405
4877,4.877,-0.0415
4878,4.878,-0.0375
4879,4.8790000000000004,-0.0445
4880,4.88,-0.042
4881,4.881,-0.0285
4882,4.882,-0.002
4883,4.883,0.021
4884,4.884,-0.001
4885,4.885,-0.024
4886,4.886,-0.063
4887,4.8870000000000005,-0.067
4888,4.888,-0.0185
4889,4.889,-0.011
4890,4.89,-0.0195
4891,4.891,-0.025
4892,4.892,-0.027
4893,4.893,-0.014
4894,4.894,-0.011
4895,4.8950000000000005,-0.0185
4896,4.896,-0.0285
4897,4.897,-0.0305
4898,4.898,-0.0215
4899,4.899,-0.023
4900,4.9,-0.0235
4901,4.901,-0.015
4902,4.902,-0.008
4903,4.9030000000000005,-0.0115
4904,4.904,-0.0115
4905,4.905,-0.0065
4906,4.906,-0.0045
4907,4.907,0.001
4908,4.908,0.003
4909,4.909,0.006
4910,4.91,0.011
4911,4.9110000000000005,0.0025
4912,4.912,0.0035
4913,4.913,0.007
4914,4.914,-0.0015
4915,4.915,0.003
4916,4.916,0.0065
4917,4.917,0.0055
4918,4.918,0.0025
4919,4.9190000000000005,0.0055
4920,4.92,0.0135
4921,4.921,0.0105
4922,4.922,0.0085
4923,4.923,0.0055
4924,4.924,0.0115
4925,4.925,0.018
4926,4.926,0.0135
4927,4.9270000000000005,0.013
4928,4.928,0.013
4929,4.929,0.019
4930,4.93,0.019
4931,4.931,0.0085
4932,4.932,0.005
4933,4.933,0.011
4934,4.934,0.0075
4935,4.9350000000000005,-0.0105
4936,4.936,-0.0255
4937,4.937,-0.0305
4938,4.938,-0.027
4939,4.939,-0.0255
4940,4.94,-0.0285
4941,4.941,-0.0365
4942,4.942,-0.052
4943,4.9430000000000005,-0.063
4944,4.944,-0.0575
4945,4.945,-0.0595
4946,4.946,-0.065
4947,4.947,-0.076
4948,4.948,-0.072
4949,4.949,-0.06
4950,4.95,-0.092
4951,4.9510000000000005,-0.119
4952,4.952,-0.115
4953,4.953,-0.103
4954,4.954,-0.109
4955,4.955,-0.1145
4956,4.956,-0.112
4957,4.957,-0.1205
4958,4.958,-0.127
4959,4.9590000000000005,-0.1235
4960,4.96,-0.1235
4961,4.961,-0.131
4962,4.962,-0.135
4963,4.963,-0.148
4964,4.964,-0.1375
4965,4.965,-0.137
4966,4.966,-0.1425
4967,4.9670000000000005,-0.1265
4968,4.968,-0.158
4969,4.969,-0.167
4970,4.97,-0.133
4971,4.971,-0.1305
4972,4.972,-0.132
4973,4.973,-0.1245
4974,4.974,-0.1295
4975,4.9750000000000005,-0.13
4976,4.976,-0.1255
4977,4.977,-0.1385
4978,4.978,-0.159
4979,4.979,-0.152
4980,4.98,-0.143
4981,4.981,-0.1405
4982,4.982,-0.1305
4983,4.9830000000000005,-0.137
4984,4.984,-0.144
4985,4.985,-0.1535
4986,4.986,-0.156
4987,4.987,-0.145
4988,4.988,-0.141
4989,4.989,-0.1395
4990,4.99,-0.1405
4991,4.9910000000000005,-0.1435
4992,4.992,-0.1405
4993,4.993,-0.1315
4994,4.994,-0.137
4995,4.995,-0.1395
4996,4.996,-0.147
4997,4.997,-0.156
4998,4.998,-0.147
4999,4.999,-0.147
5000,5.0,-0.151
5001,5.001,-0.152
5002,5.002,-0.1525
5003,5.003,-0.152
5004,5.0040000000000004,-0.148
5005,5.005,-0.144
5006,5.006,-0.138
5007,5.007,-0.1335
5008,5.008,-0.138
5009,5.009,-0.1425
5010,5.01,-0.146
5011,5.011,-0.146
5012,5.0120000000000005,-0.143
5013,5.013,-0.137
5014,5.014,-0.1335
5015,5.015,-0.146
5016,5.016,-0.1665
5017,5.017,-0.174
5018,5.018,-0.186
5019,5.019,-0.2065
5020,5.0200000000000005,-0.223
5021,5.021,-0.242
5022,5.022,-0.249
5023,5.023,-0.277
5024,5.024,-0.3285
5025,5.025,-0.3485
5026,5.026,-0.34
5027,5.027,-0.3465
5028,5.0280000000000005,-0.3585
5029,5.029,-0.374
5030,5.03,-0.397
5031,5.031,-0.4065
5032,5.032,-0.4085
5033,5.033,-0.4115
5034,5.034,-0.423
5035,5.035,-0.427
5036,5.0360000000000005,-0.422
5037,5.037,-0.425
5038,5.038,-0.435
5039,5.039,-0.453
5040,5.04,-0.466
5041,5.041,-0.453
5042,5.042,-0.446
5043,5.043,-0.446
5044,5.0440000000000005,-0.436
5045,5.045,-0.429
5046,5.046,-0.411
5047,5.047,-0.386
5048,5.048,-0.3765
5049,5.049,-0.373
5050,5.05,-0.3625
5051,5.051,-0.3425
5052,5.0520000000000005,-0.3145
5053,5.053,-0.2865
5054,5.054,-0.2595
5055,5.055,-0.2405
5056,5.056,-0.2265
5057,5.057,-0.2235
5058,5.058,-0.2245
5059,5.059,-0.2275
5060,5.0600000000000005,-0.244
5061,5.061,-0.262
5062,5.062,-0.2885
5063,5.063,-0.338
5064,5.064,-0.387
5065,5.065,-0.426
5066,5.066,-0.4485
5067,5.067,-0.4595
5068,5.0680000000000005,-0.48
5069,5.069,-0.5055
5070,5.07,-0.515
5071,5.071,-0.5505
5072,5.072,-0.598
5073,5.073,-0.615
5074,5.074,-0.6385
5075,5.075,-0.6415
5076,5.0760000000000005,-0.648
5077,5.077,-0.6635
5078,5.078,-0.655
5079,5.079,-0.645
5080,5.08,-0.631
5081,5.081,-0.608
5082,5.082,-0.582
5083,5.083,-0.561
5084,5.0840000000000005,-0.527
5085,5.085,-0.5275
5086,5.086,-0.5425
5087,5.087,-0.515
5088,5.088,-0.4935
5089,5.089,-0.4725
5090,5.09,-0.4575
5091,5.091,-0.447
5092,5.0920000000000005,-0.443
5093,5.093,-0.4315
5094,5.094,-0.4235
5095,5.095,-0.444
5096,5.096,-0.4485
5097,5.097,-0.4535
5098,5.098,-0.46
5099,5.099,-0.4525
5100,5.1000000000000005,-0.441
5101,5.101,-0.4215
5102,5.102,-0.4025
5103,5.103,-0.3835
5104,5.104,-0.399
5105,5.105,-0.415
5106,5.106,-0.381
5107,5.107,-0.3725
5108,5.1080000000000005,-0.3855
5109,5.109,-0.3845
5110,5.11,-0.38
5111,5.111,-0.37
5112,5.112,-0.362
5113,5.113,-0.356
5114,5.114,-0.3655
5115,5.115,-0.3675
5116,5.1160000000000005,-0.3665
5117,5.117,-0.362
5118,5.118,-0.3555
5119,5.119,-0.37
5120,5.12,-0.387
5121,5.121,-0.4045
5122,5.122,-0.4
5123,5.123,-0.3905
5124,5.124,-0.3765
5125,5.125,-0.3565
5126,5.126,-0.3455
5127,5.127,-0.329
5128,5.128,-0.3175
5129,5.1290000000000004,-0.305
5130,5.13,-0.2895
5131,5.131,-0.2705
5132,5.132,-0.25
5133,5.133,-0.2335
5134,5.134,-0.2225
5135,5.135,-0.2165
5136,5.136,-0.209
5137,5.1370000000000005,-0.195
5138,5.138,-0.1855
5139,5.139,-0.184
5140,5.14,-0.1715
5141,5.141,-0.1615
5142,5.142,-0.153
5143,5.143,-0.1435
5144,5.144,-0.1485
5145,5.1450000000000005,-0.1475
5146,5.146,-0.142
5147,5.147,-0.152
5148,5.148,-0.1535
5149,5.149,-0.1495
5150,5.15,-0.1405
5151,5.151,-0.135
5152,5.152,-0.138
5153,5.1530000000000005,-0.131
5154,5.154,-0.1315
5155,5.155,-0.133
5156,5.156,-0.138
5157,5.157,-0.137
5158,5.158,-0.1325
5159,5.159,-0.1375
5160,5.16,-0.132
5161,5.1610000000000005,-0.1345
5162,5.162,-0.1405
5163,5.163,-0.1355
5164,5.164,-0.128
5165,5.165,-0.119
5166,5.166,-0.1145
5167,5.167,-0.106
5168,5.168,-0.1065
5169,5.1690000000000005,-0.134
5170,5.17,-0.1445
5171,5.171,-0.1295
5172,5.172,-0.1205
5173,5.173,-0.099
5174,5.174,-0.1005
5175,5.175,-0.1195
5176,5.176,-0.127
5177,5.1770000000000005,-0.133
5178,5.178,-0.13
5179,5.179,-0.129
5180,5.18,-0.124
5181,5.181,-0.1245
5182,5.182,-0.1305
5183,5.183,-0.135
5184,5.184,-0.13
5185,5.1850000000000005,-0.124
5186,5.186,-0.128
5187,5.187,-0.129
5188,5.188,-0.1185
5189,5.189,-0.1235
5190,5.19,-0.114
5191,5.191,-0.09
5192,5.192,-0.1065
5193,5.1930000000000005,-0.118
5194,5.194,-0.1125
5195,5.195,-0.12
5196,5.196,-0.1285
5197,5.197,-0.1255
5198,5.198,-0.1215
5199,5.199,-0.1115
5200,5.2,-0.1165
5201,5.2010000000000005,-0.129
5202,5.202,-0.126
5203,5.203,-0.1265
5204,5.204,-0.135
5205,5.205,-0.1425
5206,5.206,-0.14
5207,5.207,-0.15
5208,5.208,-0.1375
5209,5.2090000000000005,-0.1205
5210,5.21,-0.123
5211,5.211,-0.1315
5212,5.212,-0.14
5213,5.213,-0.1395
5214,5.214,-0.1445
5215,5.215,-0.14
5216,5.216,-0.141
5217,5.2170000000000005,-0.14
5218,5.218,-0.132
5219,5.219,-0.1325
5220,5.22,-0.1385
5221,5.221,-0.1385
5222,5.222,-0.1385
5223,5.223,-0.1465
5224,5.224,-0.1475
5225,5.2250000000000005,-0.1465
5226,5.226,-0.1535
5227,5.227,-0.164
5228,5.228,-0.1585
5229,5.229,-0.152
5230,5.23,-0.1405
5231,5.231,-0.1375
5232,5.232,-0.1545
5233,5.2330000000000005,-0.1605
5234,5.234,-0.1695
5235,5.235,-0.171
5236,5.236,-0.166
5237,5.237,-0.1655
5238,5.238,-0.17
5239,5.239,-0.176
5240,5.24,-0.1815
5241,5.2410000000000005,-0.1875
5242,5.242,-0.1905
5243,5.243,-0.196
5244,5.244,-0.1915
5245,5.245,-0.193
5246,5.246,-0.192
5247,5.247,-0.187
5248,5.248,-0.195
5249,5.249,-0.1965
5250,5.25,-0.2085
5251,5.251,-0.216
5252,5.252,-0.207
5253,5.253,-0.207
5254,5.2540000000000004,-0.214
5255,5.255,-0.223
5256,5.256,-0.2235
5257,5.257,-0.222
5258,5.258,-0.221
5259,5.259,-0.227
5260,5.26,-0.211
5261,5.261,-0.1985
5262,5.2620000000000005,-0.2405
5263,5.263,-0.267
5264,5.264,-0.256
5265,5.265,-0.2455
5266,5.266,-0.245
5267,5.267,-0.2525
5268,5.268,-0.26
5269,5.269,-0.265
5270,5.2700000000000005,-0.246
5271,5.271,-0.2345
5272,5.272,-0.2615
5273,5.273,-0.277
5274,5.274,-0.2765
5275,5.275,-0.2775
5276,5.276,-0.2805
5277,5.277,-0.286
5278,5.2780000000000005,-0.29
5279,5.279,-0.2925
5280,5.28,-0.2975
5281,5.281,-0.302
5282,5.282,-0.3075
5283,5.283,-0.3125
5284,5.284,-0.312
5285,5.285,-0.313
5286,5.2860000000000005,-0.314
5287,5.287,-0.3165
5288,5.288,-0.323
5289,5.289,-0.326
5290,5.29,-0.3255
5291,5.291,-0.3225
5292,5.292,-0.3225
5293,5.293,-0.329
5294,5.2940000000000005,-0.327
5295,5.295,-0.3285
5296,5.296,-0.341
5297,5.297,-0.3465
5298,5.298,-0.33
5299,5.299,-0.3395
5300,5.3,-0.3645
5301,5.301,-0.362
5302,5.3020000000000005,-0.3505
5303,5.303,-0.343
5304,5.304,-0.3535
5305,5.305,-0.357
5306,5.306,-0.357
5307,5.307,-0.366
5308,5.308,-0.3775
5309,5.309,-0.3735
5310,5.3100000000000005,-0.3585
5311,5.311,-0.364
5312,5.312,-0.3655
5313,5.313,-0.359
5314,5.314,-0.358
5315,5.315,-0.36
5316,5.316,-0.377
5317,5.317,-0.3875
5318,5.3180000000000005,-0.385
5319,5.319,-0.381
5320,5.32,-0.382
5321,5.321,-0.3845
5322,5.322,-0.3875
5323,5.323,-0.3855
5324,5.324,-0.382
5325,5.325,-0.3815
5326,5.3260000000000005,-0.379
5327,5.327,-0.3865
5328,5.328,-0.3875
5329,5.329,-0.387
5330,5.33,-0.384
5331,5.331,-0.3785
5332,5.332,-0.3785
5333,5.333,-0.3775
5334,5.3340000000000005,-0.3805
5335,5.335,-0.3825
5336,5.336,-0.383
5337,5.337,-0.381
5338,5.338,-0.3825
5339,5.339,-0.3875
5340,5.34,-0.388
5341,5.341,-0.3855
5342,5.3420000000000005,-0.3885
5343,5.343,-0.3885
5344,5.344,-0.385
5345,5.345,-0.386
5346,5.346,-0.3835
5347,5.347,-0.3835
5348,5.348,-0.3795
5349,5.349,-0.3785
5350,5.3500000000000005,-0.377
5351,5.351,-0.37
5352,5.352,-0.3645
5353,5.353,-0.3565
5354,5.354,-0.358
5355,5.355,-0.358
5356,5.356,-0.3585
5357,5.357,-0.3525
5358,5.3580000000000005,-0.3505
5359,5.359,-0.356
5360,5.36,-0.3545
5361,5.361,-0.356
5362,5.362,-0.349
5363,5.363,-0.3445
5364,5.364,-0.336
5365,5.365,-0.34
5366,5.3660000000000005,-0.3405
5367,5.367,-0.329
5368,5.368,-0.3235
5369,5.369,-0.3155
5370,5.37,-0.3085
5371,5.371,-0.291
5372,5.372,-0.3025
5373,5.373,-0.324
5374,5.3740000000000006,-0.3345
5375,5.375,-0.3165
5376,5.376,-0.2975
5377,5.377,-0.323
5378,5.378,-0.3285
5379,5.3790000000000004,-0.3175
5380,5.38,-0.3105
5381,5.381,-0.3125
5382,5.382,-0.3165
5383,5.383,-0.3095
5384,5.384,-0.3055
5385,5.385,-0.2995
5386,5.386,-0.2925
5387,5.3870000000000005,-0.2905
5388,5.388,-0.2845
5389,5.389,-0.281
5390,5.39,-0.278
5391,5.391,-0.276
5392,5.392,-0.272
5393,5.393,-0.266
5394,5.394,-0.267
5395,5.3950000000000005,-0.2675
5396,5.396,-0.27
5397,5.397,-0.269
5398,5.398,-0.264
5399,5.399,-0.261
5400,5.4,-0.2605
5401,5.401,-0.2545
5402,5.402,-0.2535
5403,5.4030000000000005,-0.2615
5404,5.404,-0.2585
5405,5.405,-0.2545
5406,5.406,-0.2475
5407,5.407,-0.245
5408,5.408,-0.2445
5409,5.409,-0.245
5410,5.41,-0.24
5411,5.4110000000000005,-0.2305
5412,5.412,-0.2135
5413,5.413,-0.2045
5414,5.414,-0.2215
5415,5.415,-0.244
5416,5.416,-0.25
5417,5.417,-0.227
5418,5.418,-0.2235
5419,5.4190000000000005,-0.2215
5420,5.42,-0.224
5421,5.421,-0.2265
5422,5.422,-0.2325
5423,5.423,-0.255
5424,5.424,-0.2465
5425,5.425,-0.2375
5426,5.426,-0.2285
5427,5.4270000000000005,-0.2295
5428,5.428,-0.23
5429,5.429,-0.2285
5430,5.43,-0.2305
5431,5.431,-0.2215
5432,5.432,-0.215
5433,5.433,-0.208
5434,5.434,-0.216
5435,5.4350000000000005,-0.218
5436,5.436,-0.219
5437,5.437,-0.225
5438,5.438,-0.2215
5439,5.439,-0.219
5440,5.44,-0.224
5441,5.441,-0.2265
5442,5.442,-0.2285
5443,5.4430000000000005,-0.229
5444,5.444,-0.217
5445,5.445,-0.219
5446,5.446,-0.221
5447,5.447,-0.222
5448,5.448,-0.225
5449,5.449,-0.221
5450,5.45,-0.221
5451,5.4510000000000005,-0.221
5452,5.452,-0.217
5453,5.453,-0.2155
5454,5.454,-0.221
5455,5.455,-0.2265
5456,5.456,-0.227
5457,5.457,-0.223
5458,5.458,-0.227
5459,5.4590000000000005,-0.2125
5460,5.46,-0.2075
5461,5.461,-0.217
5462,5.462,-0.2185
5463,5.463,-0.235
5464,5.464,-0.2255
5465,5.465,-0.2125
5466,5.466,-0.212
5467,5.4670000000000005,-0.182
5468,5.468,-0.1765
5469,5.469,-0.2175
5470,5.47,-0.2325
5471,5.471,-0.224
5472,5.472,-0.214
5473,5.473,-0.207
5474,5.474,-0.2025
5475,5.4750000000000005,-0.203
5476,5.476,-0.2175
5477,5.477,-0.217
5478,5.478,-0.215
5479,5.479,-0.2135
5480,5.48,-0.2175
5481,5.481,-0.2235
5482,5.482,-0.2135
5483,5.4830000000000005,-0.2085
5484,5.484,-0.214
5485,5.485,-0.2165
5486,5.486,-0.2135
5487,5.487,-0.205
5488,5.488,-0.201
5489,5.489,-0.1985
5490,5.49,-0.194
5491,5.4910000000000005,-0.198
5492,5.492,-0.195
5493,5.493,-0.196
5494,5.494,-0.2085
5495,5.495,-0.2165
5496,5.496,-0.1995
5497,5.497,-0.1975
5498,5.498,-0.2015
5499,5.4990000000000006,-0.196
5500,5.5,-0.1975
5501,5.501,-0.198
5502,5.502,-0.2125
5503,5.503,-0.2085
5504,5.5040000000000004,-0.202
5505,5.505,-0.1995
5506,5.506,-0.1905
5507,5.507,-0.1895
5508,5.508,-0.1815
5509,5.509,-0.1745
5510,5.51,-0.1745
5511,5.511,-0.183
5512,5.5120000000000005,-0.1835
5513,5.513,-0.184
5514,5.514,-0.186
5515,5.515,-0.2005
5516,5.516,-0.1965
5517,5.517,-0.17
5518,5.518,-0.1895
5519,5.519,-0.1895
5520,5.5200000000000005,-0.1835
5521,5.521,-0.188
5522,5.522,-0.1805
5523,5.523,-0.179
5524,5.524,-0.176
5525,5.525,-0.1765
5526,5.526,-0.177
5527,5.527,-0.176
5528,5.5280000000000005,-0.1745
5529,5.529,-0.1735
5530,5.53,-0.168
5531,5.531,-0.1645
5532,5.532,-0.1635
5533,5.533,-0.1585
5534,5.534,-0.1595
5535,5.535,-0.158
5536,5.5360000000000005,-0.156
5537,5.537,-0.1575
5538,5.538,-0.157
5539,5.539,-0.161
5540,5.54,-0.1585
5541,5.541,-0.157
5542,5.542,-0.162
5543,5.543,-0.16
5544,5.5440000000000005,-0.154
5545,5.545,-0.1515
5546,5.546,-0.1525
5547,5.547,-0.151
5548,5.548,-0.1485
5549,5.549,-0.147
5550,5.55,-0.145
5551,5.551,-0.145
5552,5.5520000000000005,-0.1445
5553,5.553,-0.1405
5554,5.554,-0.143
5555,5.555,-0.144
5556,5.556,-0.1455
5557,5.557,-0.1465
5558,5.558,-0.148
5559,5.559,-0.1475
5560,5.5600000000000005,-0.1355
5561,5.561,-0.1315
5562,5.562,-0.148
5563,5.563,-0.1515
5564,5.564,-0.1415
5565,5.565,-0.1415
5566,5.566,-0.148
5567,5.567,-0.152
5568,5.5680000000000005,-0.1465
5569,5.569,-0.1395
5570,5.57,-0.136
5571,5.571,-0.122
5572,5.572,-0.1215
5573,5.573,-0.1355
5574,5.574,-0.1395
5575,5.575,-0.149
5576,5.5760000000000005,-0.1465
5577,5.577,-0.14
5578,5.578,-0.1425
5579,5.579,-0.1385
5580,5.58,-0.1295
5581,5.581,-0.125
5582,5.582,-0.112
5583,5.583,-0.101
5584,5.5840000000000005,-0.14
5585,5.585,-0.1595
5586,5.586,-0.1465
5587,5.587,-0.1465
5588,5.588,-0.1465
5589,5.589,-0.1425
5590,5.59,-0.1345
5591,5.591,-0.129
5592,5.5920000000000005,-0.119
5593,5.593,-0.122
5594,5.594,-0.1245
5595,5.595,-0.12
5596,5.596,-0.1225
5597,5.597,-0.118
5598,5.598,-0.115
5599,5.599,-0.1115
5600,5.6000000000000005,-0.111
5601,5.601,-0.111
5602,5.602,-0.107
5603,5.603,-0.105
5604,5.604,-0.1
5605,5.605,-0.0935
5606,5.606,-0.093
5607,5.607,-0.09
5608,5.6080000000000005,-0.0855
5609,5.609,-0.0795
5610,5.61,-0.075
5611,5.611,-0.0745
5612,5.612,-0.069
5613,5.613,-0.0665
5614,5.614,-0.067
5615,5.615,-0.065
5616,5.6160000000000005,-0.063
5617,5.617,-0.06
5618,5.618,-0.0585
5619,5.619,-0.056
5620,5.62,-0.06
5621,5.621,-0.0615
5622,5.622,-0.0625
5623,5.623,-0.0575
5624,5.6240000000000006,-0.0405
5625,5.625,-0.031
5626,5.626,-0.028
5627,5.627,-0.0305
5628,5.628,-0.0215
5629,5.6290000000000004,-0.0095
5630,5.63,-0.017
5631,5.631,-0.028
5632,5.632,-0.021
5633,5.633,-0.016
5634,5.634,-0.0185
5635,5.635,-0.018
5636,5.636,-0.016
5637,5.6370000000000005,-0.011
5638,5.638,-0.0075
5639,5.639,-0.017
5640,5.64,-0.038
5641,5.641,-0.046
5642,5.642,-0.053
5643,5.643,-0.036
5644,5.644,-0.0325
5645,5.6450000000000005,-0.0425
5646,5.646,-0.0315
5647,5.647,-0.03
5648,5.648,-0.013
5649,5.649,-0.004
5650,5.65,-0.008
5651,5.651,-0.0135
5652,5.652,-0.006
5653,5.6530000000000005,0.0075
5654,5.654,-0.021
5655,5.655,-0.0205
5656,5.656,-0.0115
5657,5.657,-0.02
5658,5.658,-0.015
5659,5.659,-0.014
5660,5.66,-0.012
5661,5.6610000000000005,-0.0065
5662,5.662,0.0095
5663,5.663,0.0065
5664,5.664,-0.008
5665,5.665,-0.0165
5666,5.666,-0.026
5667,5.667,-0.0285
5668,5.668,-0.0165
5669,5.6690000000000005,-0.0155
5670,5.67,-0.022
5671,5.671,-0.0215
5672,5.672,-0.006
5673,5.673,0.0045
5674,5.674,-0.0115
5675,5.675,-0.023
5676,5.676,-0.012
5677,5.6770000000000005,-0.014
5678,5.678,-0.0345
5679,5.679,-0.033
5680,5.68,-0.029
5681,5.681,-0.03
5682,5.682,-0.0345
5683,5.683,-0.035
5684,5.684,-0.0445
5685,5.6850000000000005,-0.0445
5686,5.686,-0.0305
5687,5.687,-0.0515
5688,5.688,-0.072
5689,5.689,-0.074
5690,5.69,-0.0645
5691,5.691,-0.087
5692,5.692,-0.1145
5693,5.6930000000000005,-0.107
5694,5.694,-0.1105
5695,5.695,-0.114
5696,5.696,-0.119
5697,5.697,-0.118
5698,5.698,-0.1185
5699,5.699,-0.1225
5700,5.7,-0.121
5701,5.7010000000000005,-0.123
5702,5.702,-0.1275
5703,5.703,-0.1285
5704,5.704,-0.1255
5705,5.705,-0.1195
5706,5.706,-0.114
5707,5.707,-0.137
5708,5.708,-0.1565
5709,5.7090000000000005,-0.155
5710,5.71,-0.15
5711,5.711,-0.14
5712,5.712,-0.128
5713,5.713,-0.127
5714,5.714,-0.1365
5715,5.715,-0.1405
5716,5.716,-0.1405
5717,5.7170000000000005,-0.136
5718,5.718,-0.1385
5719,5.719,-0.142
5720,5.72,-0.134
5721,5.721,-0.1345
5722,5.722,-0.1425
5723,5.723,-0.1485
5724,5.724,-0.1445
5725,5.7250000000000005,-0.136
5726,5.726,-0.1255
5727,5.727,-0.135
5728,5.728,-0.149
5729,5.729,-0.128
5730,5.73,-0.1175
5731,5.731,-0.124
5732,5.732,-0.1295
5733,5.7330000000000005,-0.1245
5734,5.734,-0.134
5735,5.735,-0.157
5736,5.736,-0.1575
5737,5.737,-0.1465
5738,5.738,-0.1415
