,0,1
0,0.0,0.0155
1,0.001,0.009
2,0.002,0.007
3,0.003,0.012
4,0.004,0.0045
5,0.005,-0.007
6,0.006,-0.0115
7,0.007,0.0005
8,0.008,0.0015
9,0.009000000000000001,-0.012
10,0.01,-0.0105
11,0.011,-0.001
12,0.012,0.0065
13,0.013000000000000001,0.008
14,0.014,0.012
15,0.015,0.016
16,0.016,0.0105
17,0.017,0.013
18,0.018000000000000002,0.0175
19,0.019,0.0195
20,0.02,0.021
21,0.021,0.0125
22,0.022,0.009
23,0.023,0.008
24,0.024,0.004
25,0.025,-0.002
26,0.026000000000000002,-0.003
27,0.027,-0.004
28,0.028,-0.0075
29,0.029,-0.0055
30,0.03,-0.005
31,0.031,0.01
32,0.032,0.016
33,0.033,0.015
34,0.034,0.01
35,0.035,0.0075
36,0.036000000000000004,0.0215
37,0.037,0.022
38,0.038,0.0165
39,0.039,0.016
40,0.04,0.0155
41,0.041,0.0035
42,0.042,0.005
43,0.043000000000000003,0.0075
44,0.044,0.003
45,0.045,-0.0015
46,0.046,-0.013
47,0.047,-0.0185
48,0.048,-0.013
49,0.049,-0.0105
50,0.05,-0.019
51,0.051000000000000004,-0.013
52,0.052000000000000005,-0.01
53,0.053,-0.0065
54,0.054,-0.0015
55,0.055,-0.0005
56,0.056,-0.0005
57,0.057,-0.002
58,0.058,-0.0005
59,0.059000000000000004,0.0005
60,0.06,0.003
61,0.061,0.0005
62,0.062,0.0005
63,0.063,-0.017
64,0.064,-0.03
65,0.065,-0.026
66,0.066,-0.0345
67,0.067,-0.0365
68,0.068,-0.0325
69,0.069,-0.0415
70,0.07,-0.05
71,0.07100000000000001,-0.0415
72,0.07200000000000001,-0.031
73,0.073,-0.0315
74,0.074,-0.0415
75,0.075,-0.0485
76,0.076,-0.0375
77,0.077,-0.035
78,0.078,-0.0475
79,0.079,-0.05
80,0.08,-0.0485
81,0.081,-0.0545
82,0.082,-0.0605
83,0.083,-0.067
84,0.084,-0.0715
85,0.085,-0.0695
86,0.08600000000000001,-0.078
87,0.08700000000000001,-0.0805
88,0.088,-0.094
89,0.089,-0.122
90,0.09,-0.1085
91,0.091,-0.107
92,0.092,-0.1095
93,0.093,-0.1045
94,0.094,-0.1235
95,0.095,-0.1295
96,0.096,-0.128
97,0.097,-0.117
98,0.098,-0.109
99,0.099,-0.131
100,0.1,-0.153
101,0.101,-0.1585
102,0.10200000000000001,-0.162
103,0.10300000000000001,-0.1755
104,0.10400000000000001,-0.1855
105,0.105,-0.1965
106,0.106,-0.2095
107,0.107,-0.211
108,0.108,-0.2125
109,0.109,-0.2195
110,0.11,-0.226
111,0.111,-0.22
112,0.112,-0.224
113,0.113,-0.2205
114,0.114,-0.226
115,0.115,-0.248
116,0.116,-0.238
117,0.117,-0.229
118,0.11800000000000001,-0.2305
119,0.11900000000000001,-0.2535
120,0.12,-0.2765
121,0.121,-0.2765
122,0.122,-0.275
123,0.123,-0.2665
124,0.124,-0.2935
125,0.125,-0.327
126,0.126,-0.3265
127,0.127,-0.329
128,0.128,-0.3355
129,0.129,-0.351
130,0.13,-0.356
131,0.131,-0.351
132,0.132,-0.351
133,0.133,-0.351
134,0.134,-0.3495
135,0.135,-0.3435
136,0.136,-0.3555
137,0.137,-0.358
138,0.138,-0.365
139,0.139,-0.367
140,0.14,-0.366
141,0.14100000000000001,-0.3835
142,0.14200000000000002,-0.386
143,0.14300000000000002,-0.3925
144,0.14400000000000002,-0.395
145,0.145,-0.401
146,0.146,-0.41
147,0.147,-0.4095
148,0.148,-0.4145
149,0.149,-0.42
150,0.15,-0.4265
151,0.151,-0.4205
152,0.152,-0.4125
153,0.153,-0.4095
154,0.154,-0.4125
155,0.155,-0.4115
156,0.156,-0.4055
157,0.157,-0.417
158,0.158,-0.4215
159,0.159,-0.416
160,0.16,-0.421
161,0.161,-0.4315
162,0.162,-0.427
163,0.163,-0.43
164,0.164,-0.4365
165,0.165,-0.43
166,0.166,-0.428
167,0.167,-0.439
168,0.168,-0.462
169,0.169,-0.477
170,0.17,-0.465
171,0.171,-0.44
172,0.17200000000000001,-0.4355
173,0.17300000000000001,-0.4415
174,0.17400000000000002,-0.4475
175,0.17500000000000002,-0.4425
176,0.176,-0.4355
177,0.177,-0.426
178,0.178,-0.423
179,0.179,-0.417
180,0.18,-0.41
181,0.181,-0.4325
182,0.182,-0.4395
183,0.183,-0.4365
184,0.184,-0.4345
185,0.185,-0.4365
186,0.186,-0.439
187,0.187,-0.432
188,0.188,-0.4285
189,0.189,-0.423
190,0.19,-0.413
191,0.191,-0.405
192,0.192,-0.4105
193,0.193,-0.406
194,0.194,-0.3905
195,0.195,-0.38
196,0.196,-0.384
197,0.197,-0.381
198,0.198,-0.375
199,0.199,-0.3885
200,0.2,-0.3865
201,0.201,-0.3855
202,0.202,-0.385
203,0.203,-0.3815
204,0.20400000000000001,-0.3765
205,0.20500000000000002,-0.3705
206,0.20600000000000002,-0.3775
207,0.20700000000000002,-0.3815
208,0.20800000000000002,-0.367
209,0.209,-0.36
210,0.21,-0.358
211,0.211,-0.3425
212,0.212,-0.345
213,0.213,-0.341
214,0.214,-0.32
215,0.215,-0.3125
216,0.216,-0.313
217,0.217,-0.3095
218,0.218,-0.307
219,0.219,-0.3005
220,0.22,-0.292
221,0.221,-0.2995
222,0.222,-0.302
223,0.223,-0.301
224,0.224,-0.3
225,0.225,-0.2975
226,0.226,-0.295
227,0.227,-0.2935
228,0.228,-0.291
229,0.229,-0.28
230,0.23,-0.288
231,0.231,-0.2835
232,0.232,-0.27
233,0.233,-0.267
234,0.234,-0.2595
235,0.23500000000000001,-0.259
236,0.23600000000000002,-0.251
237,0.23700000000000002,-0.244
238,0.23800000000000002,-0.242
239,0.23900000000000002,-0.2365
240,0.24,-0.2375
241,0.241,-0.238
242,0.242,-0.2365
243,0.243,-0.237
244,0.244,-0.2395
245,0.245,-0.2445
246,0.246,-0.229
247,0.247,-0.2285
248,0.248,-0.2355
249,0.249,-0.234
250,0.25,-0.224
251,0.251,-0.2085
252,0.252,-0.228
253,0.253,-0.2295
254,0.254,-0.2155
255,0.255,-0.2095
256,0.256,-0.191
257,0.257,-0.181
258,0.258,-0.2
259,0.259,-0.1985
260,0.26,-0.1885
261,0.261,-0.1925
262,0.262,-0.1875
263,0.263,-0.1975
264,0.264,-0.2045
265,0.265,-0.206
266,0.266,-0.2
267,0.267,-0.2075
268,0.268,-0.2125
269,0.269,-0.204
270,0.27,-0.2025
271,0.271,-0.185
272,0.272,-0.1745
273,0.273,-0.182
274,0.274,-0.187
275,0.275,-0.1805
276,0.276,-0.1695
277,0.277,-0.162
278,0.278,-0.164
279,0.279,-0.1575
280,0.28,-0.1735
281,0.281,-0.199
282,0.28200000000000003,-0.1915
283,0.28300000000000003,-0.19
284,0.28400000000000003,-0.1865
285,0.28500000000000003,-0.1815
286,0.28600000000000003,-0.182
287,0.28700000000000003,-0.198
288,0.28800000000000003,-0.2035
289,0.289,-0.188
290,0.29,-0.19
291,0.291,-0.1805
292,0.292,-0.172
293,0.293,-0.168
294,0.294,-0.1625
295,0.295,-0.163
296,0.296,-0.145
297,0.297,-0.1425
298,0.298,-0.1575
299,0.299,-0.151
300,0.3,-0.1575
301,0.301,-0.1655
302,0.302,-0.161
303,0.303,-0.162
304,0.304,-0.1695
305,0.305,-0.176
306,0.306,-0.1695
307,0.307,-0.1685
308,0.308,-0.155
309,0.309,-0.1565
310,0.31,-0.169
311,0.311,-0.1505
312,0.312,-0.1405
313,0.313,-0.148
314,0.314,-0.151
315,0.315,-0.1495
316,0.316,-0.149
317,0.317,-0.1495
318,0.318,-0.144
319,0.319,-0.124
320,0.32,-0.1295
321,0.321,-0.146
322,0.322,-0.1365
323,0.323,-0.143
324,0.324,-0.1605
325,0.325,-0.1635
326,0.326,-0.166
327,0.327,-0.165
328,0.328,-0.1565
329,0.329,-0.1595
330,0.33,-0.1515
331,0.331,-0.132
332,0.332,-0.133
333,0.333,-0.1345
334,0.334,-0.136
335,0.335,-0.1365
336,0.336,-0.131
337,0.337,-0.125
338,0.338,-0.1205
339,0.339,-0.1135
340,0.34,-0.1195
341,0.341,-0.1305
342,0.342,-0.128
343,0.343,-0.131
344,0.34400000000000003,-0.1325
345,0.34500000000000003,-0.129
346,0.34600000000000003,-0.1285
347,0.34700000000000003,-0.1355
348,0.34800000000000003,-0.1325
349,0.34900000000000003,-0.1275
350,0.35000000000000003,-0.1255
351,0.35100000000000003,-0.1185
352,0.352,-0.1145
353,0.353,-0.1095
354,0.354,-0.105
355,0.355,-0.098
356,0.356,-0.0965
357,0.357,-0.0945
358,0.358,-0.0905
359,0.359,-0.09
360,0.36,-0.0895
361,0.361,-0.094
362,0.362,-0.0935
363,0.363,-0.0935
364,0.364,-0.097
365,0.365,-0.1025
366,0.366,-0.1015
367,0.367,-0.103
368,0.368,-0.104
369,0.369,-0.101
370,0.37,-0.0945
371,0.371,-0.082
372,0.372,-0.079
373,0.373,-0.0745
374,0.374,-0.06
375,0.375,-0.0625
376,0.376,-0.066
377,0.377,-0.0495
378,0.378,-0.0475
379,0.379,-0.0355
380,0.38,-0.0415
381,0.381,-0.045
382,0.382,-0.061
383,0.383,-0.09
384,0.384,-0.0785
385,0.385,-0.085
386,0.386,-0.088
387,0.387,-0.093
388,0.388,-0.0785
389,0.389,-0.0595
390,0.39,-0.0585
391,0.391,-0.054
392,0.392,-0.069
393,0.393,-0.0735
394,0.394,-0.0735
395,0.395,-0.061
396,0.396,-0.0485
397,0.397,-0.049
398,0.398,-0.0505
399,0.399,-0.048
400,0.4,-0.049
401,0.401,-0.0515
402,0.402,-0.0455
403,0.403,-0.0385
404,0.404,-0.033
405,0.405,-0.0695
406,0.406,-0.0825
407,0.40700000000000003,-0.063
408,0.40800000000000003,-0.063
409,0.40900000000000003,-0.0575
410,0.41000000000000003,-0.052
411,0.41100000000000003,-0.051
412,0.41200000000000003,-0.051
413,0.41300000000000003,-0.046
414,0.41400000000000003,-0.0395
415,0.41500000000000004,-0.035
416,0.41600000000000004,-0.035
417,0.417,-0.0305
418,0.418,-0.029
419,0.419,-0.029
420,0.42,-0.0335
421,0.421,-0.037
422,0.422,-0.0305
423,0.423,-0.0315
424,0.424,-0.039
425,0.425,-0.0435
426,0.426,-0.0415
427,0.427,-0.039
428,0.428,-0.032
429,0.429,-0.0395
430,0.43,-0.0495
431,0.431,-0.038
432,0.432,-0.0275
433,0.433,-0.023
434,0.434,-0.021
435,0.435,-0.0175
436,0.436,-0.0075
437,0.437,0.0
438,0.438,-0.0025
439,0.439,0.0065
440,0.44,-0.001
441,0.441,-0.0205
442,0.442,-0.013
443,0.443,-0.0065
444,0.444,-0.011
445,0.445,-0.01
446,0.446,-0.0135
447,0.447,-0.0195
448,0.448,-0.009
449,0.449,0.002
450,0.45,0.003
451,0.451,0.0055
452,0.452,0.013
453,0.453,0.019
454,0.454,0.043
455,0.455,0.0375
456,0.456,0.0295
457,0.457,0.053
458,0.458,0.0415
459,0.459,0.044
460,0.46,0.056
461,0.461,0.052
462,0.462,0.051
463,0.463,0.056
464,0.464,0.049
465,0.465,0.031
466,0.466,0.0385
467,0.467,0.0465
468,0.468,0.05
469,0.46900000000000003,0.0655
470,0.47000000000000003,0.0795
471,0.47100000000000003,0.079
472,0.47200000000000003,0.0865
473,0.47300000000000003,0.096
474,0.47400000000000003,0.0755
475,0.47500000000000003,0.061
476,0.47600000000000003,0.0685
477,0.47700000000000004,0.077
478,0.47800000000000004,0.0765
479,0.47900000000000004,0.0755
480,0.48,0.0715
481,0.481,0.054
482,0.482,0.046
483,0.483,0.042
484,0.484,0.0275
485,0.485,0.0105
486,0.486,0.018
487,0.487,0.019
488,0.488,0.0165
489,0.489,0.011
490,0.49,0.006
491,0.491,0.0285
492,0.492,0.011
493,0.493,0.0175
494,0.494,0.027
495,0.495,0.0125
496,0.496,0.0225
497,0.497,0.02
498,0.498,0.0225
499,0.499,0.03
500,0.5,0.0315
501,0.501,0.0335
502,0.502,0.0345
503,0.503,0.023
504,0.504,0.015
505,0.505,0.0185
506,0.506,0.023
507,0.507,0.0275
508,0.508,0.0325
509,0.509,0.0365
510,0.51,0.052
511,0.511,0.069
512,0.512,0.063
513,0.513,0.046
514,0.514,0.018
515,0.515,0.006
516,0.516,0.0135
517,0.517,0.0065
518,0.518,0.0
519,0.519,0.004
520,0.52,0.0035
521,0.521,0.0035
522,0.522,0.003
523,0.523,0.001
524,0.524,0.003
525,0.525,0.0045
526,0.526,0.008
527,0.527,0.009
528,0.528,0.005
529,0.529,0.002
530,0.53,0.0035
531,0.531,0.0055
532,0.532,0.0065
533,0.533,0.007
534,0.534,0.0095
535,0.535,0.0115
536,0.536,0.0075
537,0.537,0.004
538,0.538,0.001
539,0.539,0.0005
540,0.54,-0.0075
541,0.541,-0.0145
542,0.542,-0.015
543,0.543,-0.0205
544,0.544,-0.028
545,0.545,-0.0355
546,0.546,-0.036
547,0.547,-0.033
548,0.548,-0.046
549,0.549,-0.0455
550,0.55,-0.018
551,0.551,-0.0195
552,0.552,-0.0335
553,0.553,-0.027
554,0.554,-0.0245
555,0.555,-0.0255
556,0.556,-0.014
557,0.557,-0.019
558,0.558,-0.0105
559,0.559,0.0105
560,0.56,-0.0035
561,0.561,-0.008
562,0.562,-0.009
563,0.5630000000000001,-0.013
564,0.5640000000000001,-0.026
565,0.5650000000000001,-0.0325
566,0.5660000000000001,-0.0285
567,0.5670000000000001,-0.0415
568,0.5680000000000001,-0.033
569,0.5690000000000001,-0.0285
570,0.5700000000000001,-0.0425
571,0.5710000000000001,-0.0375
572,0.5720000000000001,-0.028
573,0.5730000000000001,-0.0215
574,0.5740000000000001,-0.0185
575,0.5750000000000001,-0.0145
576,0.5760000000000001,-0.0115
577,0.577,-0.016
578,0.578,-0.015
579,0.579,-0.0135
580,0.58,-0.014
581,0.581,-0.0145
582,0.582,-0.018
583,0.583,-0.025
584,0.584,-0.0285
585,0.585,-0.0275
586,0.586,-0.0305
587,0.587,-0.035
588,0.588,-0.0335
589,0.589,-0.0335
590,0.59,-0.029
591,0.591,-0.0225
592,0.592,-0.023
593,0.593,-0.02
594,0.594,-0.0135
595,0.595,-0.008
596,0.596,-0.004
597,0.597,0.001
598,0.598,0.0075
599,0.599,0.012
600,0.6,0.009
601,0.601,0.0075
602,0.602,0.0115
603,0.603,0.008
604,0.604,-0.001
605,0.605,-0.0145
606,0.606,-0.0285
607,0.607,-0.037
608,0.608,-0.041
609,0.609,-0.0525
610,0.61,-0.0585
611,0.611,-0.058
612,0.612,-0.0585
613,0.613,-0.059
614,0.614,-0.069
615,0.615,-0.0845
616,0.616,-0.1085
617,0.617,-0.1325
618,0.618,-0.1545
619,0.619,-0.181
620,0.62,-0.216
621,0.621,-0.2455
622,0.622,-0.276
623,0.623,-0.316
624,0.624,-0.355
625,0.625,-0.4015
626,0.626,-0.435
627,0.627,-0.4605
628,0.628,-0.495
629,0.629,-0.5275
630,0.63,-0.5475
631,0.631,-0.58
632,0.632,-0.6215
633,0.633,-0.634
634,0.634,-0.6595
635,0.635,-0.681
636,0.636,-0.6785
637,0.637,-0.668
638,0.638,-0.6355
639,0.639,-0.618
640,0.64,-0.614
641,0.641,-0.61
642,0.642,-0.613
643,0.643,-0.6195
644,0.644,-0.6045
645,0.645,-0.5655
646,0.646,-0.522
647,0.647,-0.496
648,0.648,-0.5015
649,0.649,-0.513
650,0.65,-0.5555
651,0.651,-0.594
652,0.652,-0.592
653,0.653,-0.598
654,0.654,-0.6185
655,0.655,-0.6285
656,0.656,-0.6215
657,0.657,-0.669
658,0.658,-0.712
659,0.659,-0.714
660,0.66,-0.7255
661,0.661,-0.7125
662,0.662,-0.69
663,0.663,-0.6795
664,0.664,-0.658
665,0.665,-0.625
666,0.666,-0.6185
667,0.667,-0.6025
668,0.668,-0.576
669,0.669,-0.55
670,0.67,-0.511
671,0.671,-0.474
672,0.672,-0.422
673,0.673,-0.3645
674,0.674,-0.303
675,0.675,-0.25
676,0.676,-0.226
677,0.677,-0.2005
678,0.678,-0.174
679,0.679,-0.1415
680,0.68,-0.1215
681,0.681,-0.112
682,0.682,-0.094
683,0.683,-0.0895
684,0.684,-0.068
685,0.685,-0.039
686,0.686,-0.008
687,0.687,0.024
688,0.6880000000000001,0.0465
689,0.6890000000000001,0.0815
690,0.6900000000000001,0.1
691,0.6910000000000001,0.106
692,0.6920000000000001,0.131
693,0.6930000000000001,0.158
694,0.6940000000000001,0.1805
695,0.6950000000000001,0.197
696,0.6960000000000001,0.216
697,0.6970000000000001,0.2205
698,0.6980000000000001,0.219
699,0.6990000000000001,0.224
700,0.7000000000000001,0.209
701,0.7010000000000001,0.189
702,0.7020000000000001,0.176
703,0.7030000000000001,0.1675
704,0.704,0.1615
705,0.705,0.1505
706,0.706,0.137
707,0.707,0.1275
708,0.708,0.1125
709,0.709,0.1155
710,0.71,0.1245
711,0.711,0.1055
712,0.712,0.096
713,0.713,0.108
714,0.714,0.124
715,0.715,0.12
716,0.716,0.097
717,0.717,0.098
718,0.718,0.123
719,0.719,0.116
720,0.72,0.0945
721,0.721,0.109
722,0.722,0.108
723,0.723,0.0785
724,0.724,0.076
725,0.725,0.079
726,0.726,0.0635
727,0.727,0.063
728,0.728,0.063
729,0.729,0.0535
730,0.73,0.0595
731,0.731,0.0575
732,0.732,0.048
733,0.733,0.063
734,0.734,0.063
735,0.735,0.0615
736,0.736,0.0675
737,0.737,0.051
738,0.738,0.045
739,0.739,0.0535
740,0.74,0.049
741,0.741,0.0305
742,0.742,0.046
743,0.743,0.064
744,0.744,0.045
745,0.745,0.0305
746,0.746,0.034
747,0.747,0.0375
748,0.748,0.0335
749,0.749,0.0295
750,0.75,0.045
751,0.751,0.0515
752,0.752,0.04
753,0.753,0.043
754,0.754,0.051
755,0.755,0.058
756,0.756,0.063
757,0.757,0.0575
758,0.758,0.052
759,0.759,0.048
760,0.76,0.037
761,0.761,0.046
762,0.762,0.0585
763,0.763,0.052
764,0.764,0.0245
765,0.765,0.0075
766,0.766,0.019
767,0.767,0.025
768,0.768,0.022
769,0.769,0.0195
770,0.77,0.0325
771,0.771,0.036
772,0.772,0.03
773,0.773,0.0365
774,0.774,0.0435
775,0.775,0.046
776,0.776,0.053
777,0.777,0.052
778,0.778,0.062
779,0.779,0.061
780,0.78,0.0305
781,0.781,0.037
782,0.782,0.041
783,0.783,0.0335
784,0.784,0.033
785,0.785,0.029
786,0.786,0.0315
787,0.787,0.0285
788,0.788,0.029
789,0.789,0.0285
790,0.79,0.033
791,0.791,0.038
792,0.792,0.039
793,0.793,0.0365
794,0.794,0.0395
795,0.795,0.0465
796,0.796,0.045
797,0.797,0.0425
798,0.798,0.038
799,0.799,0.0375
800,0.8,0.0335
801,0.801,0.025
802,0.802,0.0215
803,0.803,0.016
804,0.804,0.0175
805,0.805,0.0215
806,0.806,0.0275
807,0.807,0.031
808,0.808,0.0365
809,0.809,0.051
810,0.81,0.03
811,0.811,0.0085
812,0.812,-0.0065
813,0.8130000000000001,0.0055
814,0.8140000000000001,0.023
815,0.8150000000000001,0.0045
816,0.8160000000000001,0.0065
817,0.8170000000000001,0.0135
818,0.8180000000000001,0.02
819,0.8190000000000001,0.0125
820,0.8200000000000001,0.005
821,0.8210000000000001,0.0125
822,0.8220000000000001,0.0095
823,0.8230000000000001,-0.0255
824,0.8240000000000001,-0.04
825,0.8250000000000001,-0.0315
826,0.8260000000000001,-0.039
827,0.8270000000000001,-0.0355
828,0.8280000000000001,-0.033
829,0.8290000000000001,-0.0355
830,0.8300000000000001,-0.0445
831,0.8310000000000001,-0.048
832,0.8320000000000001,-0.043
833,0.833,-0.039
834,0.834,-0.042
835,0.835,-0.048
836,0.836,-0.0475
837,0.837,-0.051
838,0.838,-0.0535
839,0.839,-0.057
840,0.84,-0.0685
841,0.841,-0.076
842,0.842,-0.0825
843,0.843,-0.096
844,0.844,-0.106
845,0.845,-0.109
846,0.846,-0.1175
847,0.847,-0.12
848,0.848,-0.1225
849,0.849,-0.131
850,0.85,-0.129
851,0.851,-0.1315
852,0.852,-0.1385
853,0.853,-0.1405
854,0.854,-0.146
855,0.855,-0.147
856,0.856,-0.1485
857,0.857,-0.1605
858,0.858,-0.1685
859,0.859,-0.1715
860,0.86,-0.184
861,0.861,-0.194
862,0.862,-0.201
863,0.863,-0.2175
864,0.864,-0.227
865,0.865,-0.225
866,0.866,-0.2355
867,0.867,-0.2425
868,0.868,-0.2475
869,0.869,-0.2535
870,0.87,-0.2495
871,0.871,-0.2545
872,0.872,-0.2595
873,0.873,-0.261
874,0.874,-0.2635
875,0.875,-0.269
876,0.876,-0.2725
877,0.877,-0.268
878,0.878,-0.276
879,0.879,-0.293
880,0.88,-0.3115
881,0.881,-0.305
882,0.882,-0.318
883,0.883,-0.3515
884,0.884,-0.345
885,0.885,-0.334
886,0.886,-0.3215
887,0.887,-0.3325
888,0.888,-0.361
889,0.889,-0.38
890,0.89,-0.376
891,0.891,-0.366
892,0.892,-0.3615
893,0.893,-0.3585
894,0.894,-0.357
895,0.895,-0.3585
896,0.896,-0.366
897,0.897,-0.3685
898,0.898,-0.369
899,0.899,-0.373
900,0.9,-0.391
901,0.901,-0.391
902,0.902,-0.3965
903,0.903,-0.3995
904,0.904,-0.4075
905,0.905,-0.41
906,0.906,-0.396
907,0.907,-0.413
908,0.908,-0.4155
909,0.909,-0.418
910,0.91,-0.4245
911,0.911,-0.4215
912,0.912,-0.414
913,0.913,-0.389
914,0.914,-0.384
915,0.915,-0.392
916,0.916,-0.384
917,0.917,-0.394
918,0.918,-0.427
919,0.919,-0.4185
920,0.92,-0.4155
921,0.921,-0.443
922,0.922,-0.4245
923,0.923,-0.4035
924,0.924,-0.415
925,0.925,-0.4075
926,0.926,-0.405
927,0.927,-0.4295
928,0.928,-0.4265
929,0.929,-0.4095
930,0.93,-0.409
931,0.931,-0.407
932,0.932,-0.397
933,0.933,-0.3915
934,0.934,-0.377
935,0.935,-0.364
936,0.936,-0.376
937,0.937,-0.3775
938,0.9380000000000001,-0.3645
939,0.9390000000000001,-0.3665
940,0.9400000000000001,-0.377
941,0.9410000000000001,-0.377
942,0.9420000000000001,-0.3765
943,0.9430000000000001,-0.37
944,0.9440000000000001,-0.364
945,0.9450000000000001,-0.365
946,0.9460000000000001,-0.3575
947,0.9470000000000001,-0.359
948,0.9480000000000001,-0.358
949,0.9490000000000001,-0.3485
950,0.9500000000000001,-0.316
951,0.9510000000000001,-0.3215
952,0.9520000000000001,-0.3385
953,0.9530000000000001,-0.314
954,0.9540000000000001,-0.315
955,0.9550000000000001,-0.308
956,0.9560000000000001,-0.2975
957,0.9570000000000001,-0.3
958,0.9580000000000001,-0.292
959,0.9590000000000001,-0.288
960,0.96,-0.288
961,0.961,-0.284
962,0.962,-0.28
963,0.963,-0.28
964,0.964,-0.286
965,0.965,-0.2805
966,0.966,-0.281
967,0.967,-0.282
968,0.968,-0.2705
969,0.969,-0.2685
970,0.97,-0.255
971,0.971,-0.241
972,0.972,-0.2435
973,0.973,-0.23
974,0.974,-0.207
975,0.975,-0.2105
976,0.976,-0.222
977,0.977,-0.219
978,0.978,-0.2095
979,0.979,-0.2155
980,0.98,-0.219
981,0.981,-0.213
982,0.982,-0.213
983,0.983,-0.214
984,0.984,-0.2105
985,0.985,-0.207
986,0.986,-0.221
987,0.987,-0.22
988,0.988,-0.21
989,0.989,-0.201
990,0.99,-0.183
991,0.991,-0.1765
992,0.992,-0.171
993,0.993,-0.178
994,0.994,-0.168
995,0.995,-0.1595
996,0.996,-0.168
997,0.997,-0.1675
998,0.998,-0.158
999,0.999,-0.1445
1000,1.0,-0.151
1001,1.0010000000000001,-0.152
1002,1.002,-0.1545
1003,1.0030000000000001,-0.158
1004,1.004,-0.1555
1005,1.0050000000000001,-0.163
1006,1.006,-0.1675
1007,1.0070000000000001,-0.154
1008,1.008,-0.148
1009,1.0090000000000001,-0.1435
1010,1.01,-0.141
1011,1.0110000000000001,-0.1475
1012,1.012,-0.133
1013,1.0130000000000001,-0.1305
1014,1.014,-0.131
1015,1.0150000000000001,-0.1215
1016,1.016,-0.1185
1017,1.0170000000000001,-0.1075
1018,1.018,-0.1115
1019,1.0190000000000001,-0.13
1020,1.02,-0.125
1021,1.0210000000000001,-0.118
1022,1.022,-0.1195
1023,1.0230000000000001,-0.1195
1024,1.024,-0.119
1025,1.025,-0.1295
1026,1.026,-0.144
1027,1.027,-0.132
1028,1.028,-0.123
1029,1.029,-0.124
1030,1.03,-0.11
1031,1.031,-0.1135
1032,1.032,-0.117
1033,1.033,-0.091
1034,1.034,-0.066
1035,1.035,-0.061
1036,1.036,-0.0655
1037,1.037,-0.049
1038,1.038,-0.061
1039,1.039,-0.0945
1040,1.04,-0.099
1041,1.041,-0.083
1042,1.042,-0.0815
1043,1.043,-0.0855
1044,1.044,-0.078
1045,1.045,-0.0895
1046,1.046,-0.091
1047,1.047,-0.0705
1048,1.048,-0.0825
1049,1.049,-0.0985
1050,1.05,-0.076
1051,1.051,-0.0665
1052,1.052,-0.0675
1053,1.053,-0.0735
1054,1.054,-0.0675
1055,1.055,-0.0575
1056,1.056,-0.056
1057,1.057,-0.06
1058,1.058,-0.055
1059,1.059,-0.051
1060,1.06,-0.06
1061,1.061,-0.06
1062,1.062,-0.06
1063,1.063,-0.0515
1064,1.064,-0.067
1065,1.065,-0.0805
1066,1.066,-0.073
1067,1.067,-0.0695
1068,1.068,-0.0635
1069,1.069,-0.0605
1070,1.07,-0.056
1071,1.071,-0.0585
1072,1.072,-0.0535
1073,1.073,-0.0465
1074,1.074,-0.047
1075,1.075,-0.0435
1076,1.076,-0.0415
1077,1.077,-0.0405
1078,1.078,-0.0455
1079,1.079,-0.0465
1080,1.08,-0.0495
1081,1.081,-0.051
1082,1.082,-0.05
1083,1.083,-0.0555
1084,1.084,-0.0565
1085,1.085,-0.058
1086,1.086,-0.06
1087,1.087,-0.0595
1088,1.088,-0.0595
1089,1.089,-0.0545
1090,1.09,-0.052
1091,1.091,-0.0505
1092,1.092,-0.047
1093,1.093,-0.043
1094,1.094,-0.04
1095,1.095,-0.0315
1096,1.096,-0.0205
1097,1.097,-0.031
1098,1.098,-0.036
1099,1.099,-0.0355
1100,1.1,-0.0395
1101,1.101,-0.0405
1102,1.102,-0.042
1103,1.103,-0.043
1104,1.104,-0.0375
1105,1.105,-0.0235
1106,1.106,-0.036
1107,1.107,-0.035
1108,1.108,-0.025
1109,1.109,-0.03
1110,1.11,-0.038
1111,1.111,-0.0525
1112,1.112,-0.0475
1113,1.113,-0.0355
1114,1.114,-0.0265
1115,1.115,-0.0135
1116,1.116,-0.01
1117,1.117,-0.018
1118,1.118,-0.0065
1119,1.119,-0.0085
1120,1.12,-0.014
1121,1.121,-0.018
1122,1.122,-0.0215
1123,1.123,-0.001
1124,1.124,-0.021
1125,1.125,-0.0555
1126,1.1260000000000001,-0.0535
1127,1.127,-0.0335
1128,1.1280000000000001,-0.0235
1129,1.129,-0.0215
1130,1.1300000000000001,-0.018
1131,1.131,-0.0175
1132,1.1320000000000001,-0.0095
1133,1.133,0.0005
1134,1.1340000000000001,0.0015
1135,1.135,0.002
1136,1.1360000000000001,0.013
1137,1.137,0.0115
1138,1.1380000000000001,0.017
1139,1.139,0.0255
1140,1.1400000000000001,-0.002
1141,1.141,-0.0135
1142,1.1420000000000001,-0.004
1143,1.143,-0.002
1144,1.1440000000000001,0.001
1145,1.145,-0.004
1146,1.1460000000000001,0.0045
1147,1.147,0.0155
1148,1.1480000000000001,0.007
1149,1.149,0.007
1150,1.1500000000000001,0.004
1151,1.151,0.0015
1152,1.1520000000000001,0.0
1153,1.153,0.0045
1154,1.154,0.0185
1155,1.155,0.01
1156,1.156,0.0125
1157,1.157,0.0125
1158,1.158,0.014
1159,1.159,0.029
1160,1.16,0.016
1161,1.161,0.0055
1162,1.162,0.001
1163,1.163,0.006
1164,1.164,0.0055
1165,1.165,0.0175
1166,1.166,0.016
1167,1.167,-0.006
1168,1.168,0.0085
1169,1.169,0.024
1170,1.17,0.024
1171,1.171,0.0115
1172,1.172,0.0295
1173,1.173,0.032
1174,1.174,0.0215
1175,1.175,0.03
1176,1.176,0.0325
1177,1.177,0.034
1178,1.178,0.0375
1179,1.179,0.0415
1180,1.18,0.0385
1181,1.181,0.0315
1182,1.182,0.026
1183,1.183,0.0335
1184,1.184,0.0355
1185,1.185,0.03
1186,1.186,0.0285
1187,1.187,0.0355
1188,1.188,0.025
1189,1.189,0.0315
1190,1.19,0.0515
1191,1.191,0.06
1192,1.192,0.0805
1193,1.193,0.0615
1194,1.194,0.056
1195,1.195,0.0745
1196,1.196,0.0745
1197,1.197,0.075
1198,1.198,0.068
1199,1.199,0.0625
1200,1.2,0.0675
1201,1.201,0.0715
1202,1.202,0.074
1203,1.203,0.0705
1204,1.204,0.0625
1205,1.205,0.0755
1206,1.206,0.081
1207,1.207,0.077
1208,1.208,0.0835
1209,1.209,0.0905
1210,1.21,0.107
1211,1.211,0.1115
1212,1.212,0.1075
1213,1.213,0.111
1214,1.214,0.1175
1215,1.215,0.124
1216,1.216,0.1225
1217,1.217,0.1225
1218,1.218,0.115
1219,1.219,0.1235
1220,1.22,0.13
1221,1.221,0.1175
1222,1.222,0.1105
1223,1.223,0.1105
1224,1.224,0.1095
1225,1.225,0.0935
1226,1.226,0.083
1227,1.227,0.0765
1228,1.228,0.065
1229,1.229,0.066
1230,1.23,0.077
1231,1.231,0.0785
1232,1.232,0.0755
1233,1.233,0.0735
1234,1.234,0.079
1235,1.235,0.083
1236,1.236,0.0895
1237,1.237,0.0915
1238,1.238,0.082
1239,1.239,0.097
1240,1.24,0.109
1241,1.241,0.08
1242,1.242,0.0615
1243,1.243,0.076
1244,1.244,0.084
1245,1.245,0.086
1246,1.246,0.088
1247,1.247,0.0685
1248,1.248,0.0595
1249,1.249,0.078
1250,1.25,0.094
1251,1.2510000000000001,0.104
1252,1.252,0.097
1253,1.2530000000000001,0.0995
1254,1.254,0.1085
1255,1.2550000000000001,0.0915
1256,1.256,0.0745
1257,1.2570000000000001,0.0715
1258,1.258,0.0725
1259,1.2590000000000001,0.065
1260,1.26,0.059
1261,1.2610000000000001,0.058
1262,1.262,0.063
1263,1.2630000000000001,0.058
1264,1.264,0.039
1265,1.2650000000000001,0.0445
1266,1.266,0.0515
1267,1.2670000000000001,0.058
1268,1.268,0.0645
1269,1.2690000000000001,0.062
1270,1.27,0.071
1271,1.2710000000000001,0.075
1272,1.272,0.074
1273,1.2730000000000001,0.0715
1274,1.274,0.0685
1275,1.2750000000000001,0.069
1276,1.276,0.063
1277,1.2770000000000001,0.0595
1278,1.278,0.059
1279,1.2790000000000001,0.0505
1280,1.28,0.0455
1281,1.281,0.0435
1282,1.282,0.0335
1283,1.283,0.0285
1284,1.284,0.0245
1285,1.285,0.022
1286,1.286,0.02
1287,1.287,0.0195
1288,1.288,0.0205
1289,1.289,0.021
1290,1.29,0.026
1291,1.291,0.0255
1292,1.292,0.0255
1293,1.293,0.0305
1294,1.294,0.0285
1295,1.295,0.0205
1296,1.296,0.014
1297,1.297,0.0135
1298,1.298,0.0135
1299,1.299,0.007
1300,1.3,0.0035
1301,1.301,0.013
1302,1.302,0.0105
1303,1.303,0.01
1304,1.304,0.019
1305,1.305,-0.0045
1306,1.306,-0.019
1307,1.307,-0.005
1308,1.308,0.0065
1309,1.309,0.0145
1310,1.31,0.0455
1311,1.311,0.043
1312,1.312,-0.0215
1313,1.313,-0.022
1314,1.314,0.01
1315,1.315,0.0
1316,1.316,0.007
1317,1.317,0.0265
1318,1.318,0.0185
1319,1.319,0.0045
1320,1.32,0.0
1321,1.321,0.0
1322,1.322,0.0005
1323,1.323,0.0
1324,1.324,-0.0005
1325,1.325,-0.0055
1326,1.326,-0.0085
1327,1.327,-0.009
1328,1.328,-0.008
1329,1.329,-0.0035
1330,1.33,0.0035
1331,1.331,0.0125
1332,1.332,0.015
1333,1.333,0.014
1334,1.334,0.023
1335,1.335,0.029
1336,1.336,0.0295
1337,1.337,0.027
1338,1.338,0.0255
1339,1.339,0.021
1340,1.34,0.018
1341,1.341,0.024
1342,1.342,0.029
1343,1.343,0.032
1344,1.344,0.036
1345,1.345,0.0345
1346,1.346,0.0315
1347,1.347,0.037
1348,1.348,0.0365
1349,1.349,0.0365
1350,1.35,0.0345
1351,1.351,0.027
1352,1.352,0.0285
1353,1.353,0.03
1354,1.354,0.027
1355,1.355,0.024
1356,1.356,0.0265
1357,1.357,0.0105
1358,1.358,-0.015
1359,1.359,-0.0315
1360,1.36,-0.0555
1361,1.361,-0.079
1362,1.362,-0.1085
1363,1.363,-0.145
1364,1.364,-0.1795
1365,1.365,-0.213
1366,1.366,-0.243
1367,1.367,-0.2785
1368,1.368,-0.3215
1369,1.369,-0.3465
1370,1.37,-0.373
1371,1.371,-0.4105
1372,1.372,-0.4445
1373,1.373,-0.4835
1374,1.374,-0.5195
1375,1.375,-0.557
1376,1.3760000000000001,-0.5835
1377,1.377,-0.6085
1378,1.3780000000000001,-0.643
1379,1.379,-0.654
1380,1.3800000000000001,-0.6395
1381,1.381,-0.632
1382,1.3820000000000001,-0.634
1383,1.383,-0.632
1384,1.3840000000000001,-0.6295
1385,1.385,-0.6275
1386,1.3860000000000001,-0.618
1387,1.387,-0.6015
1388,1.3880000000000001,-0.585
1389,1.389,-0.544
1390,1.3900000000000001,-0.5125
1391,1.391,-0.5075
1392,1.3920000000000001,-0.512
1393,1.393,-0.5405
1394,1.3940000000000001,-0.558
1395,1.395,-0.5615
1396,1.3960000000000001,-0.5755
1397,1.397,-0.6265
1398,1.3980000000000001,-0.668
1399,1.399,-0.683
1400,1.4000000000000001,-0.6955
1401,1.401,-0.7145
1402,1.4020000000000001,-0.7305
1403,1.403,-0.742
1404,1.4040000000000001,-0.7375
1405,1.405,-0.723
1406,1.4060000000000001,-0.717
1407,1.407,-0.683
1408,1.408,-0.655
1409,1.409,-0.6175
1410,1.41,-0.5695
1411,1.411,-0.5335
1412,1.412,-0.5025
1413,1.413,-0.474
1414,1.414,-0.4385
1415,1.415,-0.403
1416,1.416,-0.3495
1417,1.417,-0.2835
1418,1.418,-0.241
1419,1.419,-0.219
1420,1.42,-0.187
1421,1.421,-0.143
1422,1.422,-0.1075
1423,1.423,-0.1095
1424,1.424,-0.107
1425,1.425,-0.085
1426,1.426,-0.0625
1427,1.427,-0.029
1428,1.428,0.0065
1429,1.429,0.0345
1430,1.43,0.0585
1431,1.431,0.101
1432,1.432,0.1185
1433,1.433,0.1535
1434,1.434,0.188
1435,1.435,0.182
1436,1.436,0.2045
1437,1.437,0.2235
1438,1.438,0.2505
1439,1.439,0.2575
1440,1.44,0.2425
1441,1.441,0.254
1442,1.442,0.2675
1443,1.443,0.267
1444,1.444,0.252
1445,1.445,0.248
1446,1.446,0.2335
1447,1.447,0.234
1448,1.448,0.247
1449,1.449,0.228
1450,1.45,0.2185
1451,1.451,0.211
1452,1.452,0.205
1453,1.453,0.197
1454,1.454,0.186
1455,1.455,0.1865
1456,1.456,0.1775
1457,1.457,0.1605
1458,1.458,0.1625
1459,1.459,0.166
1460,1.46,0.16
1461,1.461,0.1495
1462,1.462,0.1375
1463,1.463,0.1365
1464,1.464,0.132
1465,1.465,0.1275
1466,1.466,0.119
1467,1.467,0.1125
1468,1.468,0.117
1469,1.469,0.1205
1470,1.47,0.1255
1471,1.471,0.121
1472,1.472,0.1225
1473,1.473,0.1135
1474,1.474,0.111
1475,1.475,0.123
1476,1.476,0.1115
1477,1.477,0.116
1478,1.478,0.1215
1479,1.479,0.122
1480,1.48,0.119
1481,1.481,0.102
1482,1.482,0.0955
1483,1.483,0.091
1484,1.484,0.0915
1485,1.485,0.093
1486,1.486,0.103
1487,1.487,0.096
1488,1.488,0.069
1489,1.489,0.0795
1490,1.49,0.086
1491,1.491,0.0805
1492,1.492,0.0855
1493,1.493,0.0855
1494,1.494,0.0965
1495,1.495,0.0905
1496,1.496,0.0795
1497,1.497,0.087
1498,1.498,0.086
1499,1.499,0.0825
1500,1.5,0.0785
1501,1.5010000000000001,0.0765
1502,1.502,0.0625
1503,1.5030000000000001,0.046
1504,1.504,0.0455
1505,1.5050000000000001,0.053
1506,1.506,0.0545
1507,1.5070000000000001,0.0545
1508,1.508,0.0585
1509,1.5090000000000001,0.0575
1510,1.51,0.064
1511,1.5110000000000001,0.071
1512,1.512,0.0765
1513,1.5130000000000001,0.083
1514,1.514,0.083
1515,1.5150000000000001,0.0885
1516,1.516,0.084
1517,1.5170000000000001,0.082
1518,1.518,0.0835
1519,1.5190000000000001,0.0825
1520,1.52,0.087
1521,1.5210000000000001,0.0805
1522,1.522,0.068
1523,1.5230000000000001,0.0475
1524,1.524,0.0555
1525,1.5250000000000001,0.06
1526,1.526,0.061
1527,1.5270000000000001,0.069
1528,1.528,0.059
1529,1.5290000000000001,0.061
1530,1.53,0.0515
1531,1.5310000000000001,0.0625
1532,1.532,0.071
1533,1.5330000000000001,0.059
1534,1.534,0.059
1535,1.5350000000000001,0.0695
1536,1.536,0.079
1537,1.537,0.0735
1538,1.538,0.081
1539,1.539,0.0775
1540,1.54,0.076
1541,1.541,0.0795
1542,1.542,0.084
1543,1.543,0.0655
1544,1.544,0.03
1545,1.545,0.036
1546,1.546,0.0445
1547,1.547,0.042
1548,1.548,0.041
1549,1.549,0.0465
1550,1.55,0.0515
1551,1.551,0.0495
1552,1.552,0.0495
1553,1.553,0.0525
1554,1.554,0.057
1555,1.555,0.0515
1556,1.556,0.0455
1557,1.557,0.044
1558,1.558,0.042
1559,1.559,0.037
1560,1.56,0.0295
1561,1.561,0.023
1562,1.562,0.015
1563,1.563,0.0075
1564,1.564,0.005
1565,1.565,0.0015
1566,1.566,-0.005
1567,1.567,-0.009
1568,1.568,-0.0085
1569,1.569,-0.0055
1570,1.57,-0.004
1571,1.571,-0.0065
1572,1.572,-0.008
1573,1.573,-0.0075
1574,1.574,-0.0075
1575,1.575,-0.008
1576,1.576,-0.0075
1577,1.577,-0.0005
1578,1.578,-0.0115
1579,1.579,-0.0285
1580,1.58,-0.025
1581,1.581,-0.0205
1582,1.582,-0.0555
1583,1.583,-0.078
1584,1.584,-0.0535
1585,1.585,-0.0515
1586,1.586,-0.059
1587,1.587,-0.0805
1588,1.588,-0.072
1589,1.589,-0.07
1590,1.59,-0.095
1591,1.591,-0.084
1592,1.592,-0.0985
1593,1.593,-0.1045
1594,1.594,-0.1015
1595,1.595,-0.106
1596,1.596,-0.108
1597,1.597,-0.116
1598,1.598,-0.1225
1599,1.599,-0.133
1600,1.6,-0.1365
1601,1.601,-0.142
1602,1.602,-0.149
1603,1.603,-0.164
1604,1.604,-0.172
1605,1.605,-0.175
1606,1.606,-0.1855
1607,1.607,-0.1925
1608,1.608,-0.196
1609,1.609,-0.195
1610,1.61,-0.2045
1611,1.611,-0.2125
1612,1.612,-0.213
1613,1.613,-0.221
1614,1.614,-0.221
1615,1.615,-0.222
1616,1.616,-0.229
1617,1.617,-0.2305
1618,1.618,-0.233
1619,1.619,-0.234
1620,1.62,-0.245
1621,1.621,-0.257
1622,1.622,-0.2655
1623,1.623,-0.273
1624,1.624,-0.2675
1625,1.625,-0.2535
1626,1.6260000000000001,-0.2785
1627,1.627,-0.3215
1628,1.6280000000000001,-0.31
1629,1.629,-0.3095
1630,1.6300000000000001,-0.3165
1631,1.631,-0.311
1632,1.6320000000000001,-0.3105
1633,1.633,-0.311
1634,1.6340000000000001,-0.3135
1635,1.635,-0.3195
1636,1.6360000000000001,-0.322
1637,1.637,-0.308
1638,1.6380000000000001,-0.3245
1639,1.639,-0.334
1640,1.6400000000000001,-0.3365
1641,1.641,-0.358
1642,1.6420000000000001,-0.3675
1643,1.643,-0.365
1644,1.6440000000000001,-0.3555
1645,1.645,-0.348
1646,1.6460000000000001,-0.3475
1647,1.647,-0.3485
1648,1.6480000000000001,-0.358
1649,1.649,-0.3755
1650,1.6500000000000001,-0.3695
1651,1.651,-0.354
1652,1.6520000000000001,-0.362
1653,1.653,-0.366
1654,1.6540000000000001,-0.358
1655,1.655,-0.352
1656,1.6560000000000001,-0.3515
1657,1.657,-0.3605
1658,1.6580000000000001,-0.3695
1659,1.659,-0.374
1660,1.6600000000000001,-0.3755
1661,1.661,-0.38
1662,1.6620000000000001,-0.3845
1663,1.663,-0.3885
1664,1.6640000000000001,-0.3795
1665,1.665,-0.385
1666,1.666,-0.385
1667,1.667,-0.385
1668,1.668,-0.4015
1669,1.669,-0.384
1670,1.67,-0.376
1671,1.671,-0.3685
1672,1.672,-0.359
1673,1.673,-0.352
1674,1.674,-0.342
1675,1.675,-0.341
1676,1.676,-0.3335
1677,1.677,-0.3365
1678,1.678,-0.3425
1679,1.679,-0.3465
1680,1.68,-0.3415
1681,1.681,-0.326
1682,1.682,-0.3315
1683,1.683,-0.3485
1684,1.684,-0.354
1685,1.685,-0.3455
1686,1.686,-0.335
1687,1.687,-0.3355
1688,1.688,-0.3335
1689,1.689,-0.3275
1690,1.69,-0.316
1691,1.691,-0.3055
1692,1.692,-0.3045
1693,1.693,-0.294
1694,1.694,-0.2845
1695,1.695,-0.2765
1696,1.696,-0.2705
1697,1.697,-0.2615
1698,1.698,-0.26
1699,1.699,-0.273
1700,1.7,-0.279
1701,1.701,-0.292
1702,1.702,-0.29
1703,1.703,-0.2675
1704,1.704,-0.2695
1705,1.705,-0.274
1706,1.706,-0.258
1707,1.707,-0.249
1708,1.708,-0.2445
1709,1.709,-0.231
1710,1.71,-0.2255
1711,1.711,-0.2325
1712,1.712,-0.222
1713,1.713,-0.2115
1714,1.714,-0.1925
1715,1.715,-0.192
1716,1.716,-0.2095
1717,1.717,-0.196
1718,1.718,-0.19
1719,1.719,-0.1965
1720,1.72,-0.2
1721,1.721,-0.1955
1722,1.722,-0.2035
1723,1.723,-0.198
1724,1.724,-0.186
1725,1.725,-0.2005
1726,1.726,-0.198
1727,1.727,-0.1955
1728,1.728,-0.1915
1729,1.729,-0.177
1730,1.73,-0.1705
1731,1.731,-0.164
1732,1.732,-0.16
1733,1.733,-0.156
1734,1.734,-0.1465
1735,1.735,-0.142
1736,1.736,-0.1325
1737,1.737,-0.122
1738,1.738,-0.13
1739,1.739,-0.1395
1740,1.74,-0.139
1741,1.741,-0.137
1742,1.742,-0.1365
1743,1.743,-0.141
1744,1.744,-0.144
1745,1.745,-0.136
1746,1.746,-0.1285
1747,1.747,-0.1315
1748,1.748,-0.128
1749,1.749,-0.1145
1750,1.75,-0.1015
1751,1.7510000000000001,-0.0915
1752,1.752,-0.097
1753,1.7530000000000001,-0.0945
1754,1.754,-0.0705
1755,1.7550000000000001,-0.0775
1756,1.756,-0.104
1757,1.7570000000000001,-0.0855
1758,1.758,-0.071
1759,1.7590000000000001,-0.0875
1760,1.76,-0.095
1761,1.7610000000000001,-0.0925
1762,1.762,-0.089
1763,1.7630000000000001,-0.0935
1764,1.764,-0.0885
1765,1.7650000000000001,-0.089
1766,1.766,-0.0885
1767,1.7670000000000001,-0.079
1768,1.768,-0.093
1769,1.7690000000000001,-0.0895
1770,1.77,-0.0775
1771,1.7710000000000001,-0.071
1772,1.772,-0.062
1773,1.7730000000000001,-0.0715
1774,1.774,-0.075
1775,1.7750000000000001,-0.0725
1776,1.776,-0.065
1777,1.7770000000000001,-0.0535
1778,1.778,-0.076
1779,1.7790000000000001,-0.088
1780,1.78,-0.0825
1781,1.7810000000000001,-0.089
1782,1.782,-0.0885
1783,1.7830000000000001,-0.089
1784,1.784,-0.089
1785,1.7850000000000001,-0.0885
1786,1.786,-0.079
1787,1.7870000000000001,-0.078
1788,1.788,-0.079
1789,1.7890000000000001,-0.064
1790,1.79,-0.059
1791,1.7910000000000001,-0.0525
1792,1.792,-0.0415
1793,1.793,-0.0345
1794,1.794,-0.032
1795,1.795,-0.034
1796,1.796,-0.037
1797,1.797,-0.0355
1798,1.798,-0.037
1799,1.799,-0.0455
1800,1.8,-0.051
1801,1.801,-0.0585
1802,1.802,-0.0655
1803,1.803,-0.0695
1804,1.804,-0.07
1805,1.805,-0.0645
1806,1.806,-0.063
1807,1.807,-0.069
1808,1.808,-0.068
1809,1.809,-0.0615
1810,1.81,-0.054
1811,1.811,-0.056
1812,1.812,-0.0525
1813,1.813,-0.048
1814,1.814,-0.052
1815,1.815,-0.0505
1816,1.816,-0.0555
1817,1.817,-0.055
1818,1.818,-0.0415
1819,1.819,-0.043
1820,1.82,-0.0395
1821,1.821,-0.0325
1822,1.822,-0.064
1823,1.823,-0.0765
1824,1.824,-0.0525
1825,1.825,-0.0615
1826,1.826,-0.0975
1827,1.827,-0.1135
1828,1.828,-0.092
1829,1.829,-0.0695
1830,1.83,-0.0745
1831,1.831,-0.072
1832,1.832,-0.0645
1833,1.833,-0.054
1834,1.834,-0.0425
1835,1.835,-0.0395
1836,1.836,-0.032
1837,1.837,-0.037
1838,1.838,-0.035
1839,1.839,-0.052
1840,1.84,-0.0695
1841,1.841,-0.063
1842,1.842,-0.0675
1843,1.843,-0.068
1844,1.844,-0.0725
1845,1.845,-0.074
1846,1.846,-0.07
1847,1.847,-0.0735
1848,1.848,-0.0745
1849,1.849,-0.07
1850,1.85,-0.0595
1851,1.851,-0.0515
1852,1.852,-0.0435
1853,1.853,-0.038
1854,1.854,-0.0375
1855,1.855,-0.038
1856,1.856,-0.0395
1857,1.857,-0.032
1858,1.858,-0.0365
1859,1.859,-0.0465
1860,1.86,-0.046
1861,1.861,-0.0545
1862,1.862,-0.063
1863,1.863,-0.0615
1864,1.864,-0.058
1865,1.865,-0.059
1866,1.866,-0.0505
1867,1.867,-0.046
1868,1.868,-0.0455
1869,1.869,-0.0315
1870,1.87,-0.033
1871,1.871,-0.0165
1872,1.872,-0.001
1873,1.873,-0.0105
1874,1.874,-0.008
1875,1.875,-0.008
1876,1.8760000000000001,-0.008
1877,1.877,-0.0045
1878,1.8780000000000001,-0.0075
1879,1.879,-0.013
1880,1.8800000000000001,-0.0105
1881,1.881,-0.0135
1882,1.8820000000000001,-0.018
1883,1.883,-0.02
1884,1.8840000000000001,-0.0265
1885,1.885,-0.0305
1886,1.8860000000000001,-0.0365
1887,1.887,-0.0405
1888,1.8880000000000001,-0.034
1889,1.889,-0.0305
1890,1.8900000000000001,-0.034
1891,1.891,-0.0235
1892,1.8920000000000001,-0.013
1893,1.893,0.011
1894,1.8940000000000001,0.023
1895,1.895,0.015
1896,1.8960000000000001,0.022
1897,1.897,0.024
1898,1.8980000000000001,0.0095
1899,1.899,0.014
1900,1.9000000000000001,0.0235
1901,1.901,-0.0025
1902,1.9020000000000001,-0.025
1903,1.903,-0.0095
1904,1.9040000000000001,-0.005
1905,1.905,-0.008
1906,1.9060000000000001,0.0175
1907,1.907,-0.017
1908,1.9080000000000001,-0.0295
1909,1.909,-0.0005
1910,1.9100000000000001,-0.0155
1911,1.911,-0.014
1912,1.9120000000000001,-0.009
1913,1.913,0.005
1914,1.9140000000000001,0.018
1915,1.915,0.033
1916,1.9160000000000001,0.027
1917,1.917,0.0165
1918,1.9180000000000001,0.029
1919,1.919,0.025
1920,1.92,0.027
1921,1.921,0.022
1922,1.922,0.025
1923,1.923,0.0355
1924,1.924,0.038
1925,1.925,0.0455
1926,1.926,0.0585
1927,1.927,0.0635
1928,1.928,0.058
1929,1.929,0.058
1930,1.93,0.0505
1931,1.931,0.0505
1932,1.932,0.0585
1933,1.933,0.0595
1934,1.934,0.0825
1935,1.935,0.0815
1936,1.936,0.0765
1937,1.937,0.099
1938,1.938,0.06
1939,1.939,0.0455
1940,1.94,0.0715
1941,1.941,0.086
1942,1.942,0.1025
1943,1.943,0.1065
1944,1.944,0.106
1945,1.945,0.077
1946,1.946,0.0615
1947,1.947,0.0825
1948,1.948,0.0855
1949,1.949,0.0745
1950,1.95,0.0755
1951,1.951,0.077
1952,1.952,0.0875
1953,1.953,0.0925
1954,1.954,0.087
1955,1.955,0.0895
1956,1.956,0.086
1957,1.957,0.088
1958,1.958,0.078
1959,1.959,0.065
1960,1.96,0.057
1961,1.961,0.0435
1962,1.962,0.037
1963,1.963,0.042
1964,1.964,0.05
1965,1.965,0.0465
1966,1.966,0.0435
1967,1.967,0.0505
1968,1.968,0.0555
1969,1.969,0.0555
1970,1.97,0.0655
1971,1.971,0.0755
1972,1.972,0.0755
1973,1.973,0.0675
1974,1.974,0.0675
1975,1.975,0.0735
1976,1.976,0.072
1977,1.977,0.0755
1978,1.978,0.084
1979,1.979,0.087
1980,1.98,0.081
1981,1.981,0.075
1982,1.982,0.0675
1983,1.983,0.05
1984,1.984,0.0335
1985,1.985,0.029
1986,1.986,0.0235
1987,1.987,0.015
1988,1.988,0.0135
1989,1.989,0.016
1990,1.99,0.0245
1991,1.991,0.0225
1992,1.992,0.034
1993,1.993,0.055
1994,1.994,0.045
1995,1.995,0.065
1996,1.996,0.065
1997,1.997,0.0465
1998,1.998,0.0435
1999,1.999,0.0285
2000,2.0,0.041
2001,2.001,0.051
2002,2.0020000000000002,0.0465
2003,2.003,0.0205
2004,2.004,0.0145
2005,2.005,0.02
2006,2.0060000000000002,0.0125
2007,2.007,0.0145
2008,2.008,0.0255
2009,2.009,0.0345
2010,2.0100000000000002,0.0085
2011,2.011,0.0025
2012,2.012,0.0215
2013,2.013,0.03
2014,2.0140000000000002,0.0185
2015,2.015,0.015
2016,2.016,0.026
2017,2.017,0.0205
2018,2.0180000000000002,0.0155
2019,2.019,0.0195
2020,2.02,0.0165
2021,2.021,-0.011
2022,2.0220000000000002,-0.0175
2023,2.023,-0.0055
2024,2.024,-0.018
2025,2.025,-0.0225
2026,2.0260000000000002,-0.0125
2027,2.027,-0.009
2028,2.028,-0.002
2029,2.029,0.004
2030,2.0300000000000002,0.0095
2031,2.031,0.013
2032,2.032,0.015
2033,2.033,0.005
2034,2.0340000000000003,0.009
2035,2.035,0.02
2036,2.036,0.016
2037,2.037,0.019
2038,2.0380000000000003,0.0105
2039,2.039,0.0025
2040,2.04,0.006
2041,2.041,0.0165
2042,2.0420000000000003,0.0095
2043,2.043,-0.005
2044,2.044,-0.0025
2045,2.045,0.0025
2046,2.0460000000000003,0.005
2047,2.047,0.006
2048,2.048,0.0165
2049,2.049,-0.001
2050,2.05,-0.015
2051,2.051,-0.003
2052,2.052,-0.0085
2053,2.053,-0.0065
2054,2.054,0.0005
2055,2.055,-0.005
2056,2.056,0.006
2057,2.057,0.0075
2058,2.058,-0.0145
2059,2.059,-0.016
2060,2.06,-0.01
2061,2.061,0.0055
2062,2.062,0.003
2063,2.063,-0.016
2064,2.064,-0.011
2065,2.065,-0.013
2066,2.066,-0.013
2067,2.067,-0.018
2068,2.068,0.0
2069,2.069,0.014
2070,2.07,0.0155
2071,2.071,0.049
2072,2.072,0.034
2073,2.073,0.033
2074,2.074,0.053
2075,2.075,0.056
2076,2.076,0.0665
2077,2.077,0.038
2078,2.078,0.0065
2079,2.079,-0.004
2080,2.08,-0.006
2081,2.081,-0.0215
2082,2.082,-0.0345
2083,2.083,-0.034
2084,2.084,-0.0395
2085,2.085,-0.0565
2086,2.086,-0.0895
2087,2.087,-0.103
2088,2.088,-0.108
2089,2.089,-0.121
2090,2.09,-0.1405
2091,2.091,-0.1695
2092,2.092,-0.1945
2093,2.093,-0.2155
2094,2.094,-0.2455
2095,2.095,-0.284
2096,2.096,-0.3225
2097,2.097,-0.339
2098,2.098,-0.379
2099,2.099,-0.449
2100,2.1,-0.492
2101,2.101,-0.5315
2102,2.102,-0.582
2103,2.103,-0.617
2104,2.104,-0.627
2105,2.105,-0.655
2106,2.106,-0.688
2107,2.107,-0.6955
2108,2.108,-0.681
2109,2.109,-0.661
2110,2.11,-0.635
2111,2.111,-0.6055
2112,2.112,-0.593
2113,2.113,-0.5935
2114,2.114,-0.5815
2115,2.115,-0.5585
2116,2.116,-0.5285
2117,2.117,-0.498
2118,2.118,-0.488
2119,2.119,-0.4895
2120,2.12,-0.508
2121,2.121,-0.5355
2122,2.122,-0.5815
2123,2.123,-0.6225
2124,2.124,-0.6355
2125,2.125,-0.663
2126,2.126,-0.6915
2127,2.1270000000000002,-0.694
2128,2.128,-0.693
2129,2.129,-0.704
2130,2.13,-0.707
2131,2.1310000000000002,-0.7065
2132,2.132,-0.6915
2133,2.133,-0.668
2134,2.134,-0.6495
2135,2.1350000000000002,-0.603
2136,2.136,-0.588
2137,2.137,-0.5695
2138,2.138,-0.5245
2139,2.1390000000000002,-0.489
2140,2.14,-0.454
2141,2.141,-0.4365
2142,2.142,-0.4145
2143,2.1430000000000002,-0.376
2144,2.144,-0.3285
2145,2.145,-0.279
2146,2.146,-0.2335
2147,2.1470000000000002,-0.216
2148,2.148,-0.1855
2149,2.149,-0.1445
2150,2.15,-0.116
2151,2.1510000000000002,-0.0815
2152,2.152,-0.062
2153,2.153,-0.0415
2154,2.154,-0.0235
2155,2.1550000000000002,0.001
2156,2.156,0.0285
2157,2.157,0.0505
2158,2.158,0.0595
2159,2.1590000000000003,0.073
2160,2.16,0.097
2161,2.161,0.1125
2162,2.162,0.129
2163,2.1630000000000003,0.1455
2164,2.164,0.1565
2165,2.165,0.164
2166,2.166,0.1715
2167,2.1670000000000003,0.1725
2168,2.168,0.191
2169,2.169,0.2165
2170,2.17,0.2265
2171,2.1710000000000003,0.237
2172,2.172,0.246
2173,2.173,0.2335
2174,2.174,0.2135
2175,2.1750000000000003,0.2165
2176,2.176,0.213
2177,2.177,0.208
2178,2.178,0.1925
2179,2.179,0.173
2180,2.18,0.1775
2181,2.181,0.167
2182,2.182,0.1595
2183,2.183,0.1625
2184,2.184,0.1575
2185,2.185,0.126
2186,2.186,0.099
2187,2.187,0.1145
2188,2.188,0.132
2189,2.189,0.131
2190,2.19,0.128
2191,2.191,0.1395
2192,2.192,0.1315
2193,2.193,0.1235
2194,2.194,0.1375
2195,2.195,0.1295
2196,2.196,0.123
2197,2.197,0.121
2198,2.198,0.1035
2199,2.199,0.098
2200,2.2,0.09
2201,2.201,0.08
2202,2.202,0.0795
2203,2.203,0.087
2204,2.204,0.099
2205,2.205,0.0755
2206,2.206,0.054
2207,2.207,0.0555
2208,2.208,0.064
2209,2.209,0.076
2210,2.21,0.076
2211,2.211,0.089
2212,2.212,0.082
2213,2.213,0.058
2214,2.214,0.0675
2215,2.215,0.0865
2216,2.216,0.086
2217,2.217,0.0735
2218,2.218,0.068
2219,2.219,0.0685
2220,2.22,0.069
2221,2.221,0.0625
2222,2.222,0.061
2223,2.223,0.0585
2224,2.224,0.056
2225,2.225,0.065
2226,2.226,0.054
2227,2.227,0.036
2228,2.228,0.0465
2229,2.229,0.06
2230,2.23,0.0565
2231,2.231,0.0585
2232,2.232,0.0715
2233,2.233,0.0825
2234,2.234,0.085
2235,2.235,0.0765
2236,2.236,0.0735
2237,2.237,0.0715
2238,2.238,0.0695
2239,2.239,0.0685
2240,2.24,0.07
2241,2.241,0.063
2242,2.242,0.0535
2243,2.243,0.047
2244,2.244,0.0335
2245,2.245,0.0455
2246,2.246,0.0385
2247,2.247,0.0225
2248,2.248,0.0305
2249,2.249,0.0275
2250,2.25,0.0365
2251,2.251,0.0465
2252,2.2520000000000002,0.0485
2253,2.253,0.058
2254,2.254,0.0655
2255,2.255,0.0675
2256,2.2560000000000002,0.0605
2257,2.257,0.0535
2258,2.258,0.046
2259,2.259,0.039
2260,2.2600000000000002,0.0325
2261,2.261,0.025
2262,2.262,0.0195
2263,2.263,0.01
2264,2.2640000000000002,-0.0045
2265,2.265,-0.0015
2266,2.266,-0.001
2267,2.267,0.0035
2268,2.2680000000000002,0.0205
2269,2.269,0.034
2270,2.27,0.0525
2271,2.271,0.0345
2272,2.2720000000000002,0.021
2273,2.273,0.0285
2274,2.274,0.0295
2275,2.275,0.0285
2276,2.2760000000000002,0.0275
2277,2.277,0.034
2278,2.278,0.023
2279,2.279,0.0105
2280,2.2800000000000002,0.001
2281,2.281,0.0095
2282,2.282,0.01
2283,2.283,-0.0115
2284,2.2840000000000003,-0.023
2285,2.285,-0.038
2286,2.286,-0.0475
2287,2.287,-0.04
2288,2.2880000000000003,-0.027
2289,2.289,-0.02
2290,2.29,-0.0265
2291,2.291,-0.0385
2292,2.2920000000000003,-0.0315
2293,2.293,-0.0185
2294,2.294,-0.014
2295,2.295,-0.0415
2296,2.2960000000000003,-0.0515
2297,2.297,-0.0395
2298,2.298,-0.0505
2299,2.299,-0.045
2300,2.3000000000000003,-0.057
2301,2.301,-0.0845
2302,2.302,-0.1055
2303,2.303,-0.1015
2304,2.3040000000000003,-0.098
2305,2.305,-0.1055
2306,2.306,-0.1205
2307,2.307,-0.1325
2308,2.308,-0.105
2309,2.309,-0.1
2310,2.31,-0.099
2311,2.311,-0.1025
2312,2.312,-0.109
2313,2.313,-0.104
2314,2.314,-0.1185
2315,2.315,-0.1185
2316,2.316,-0.108
2317,2.317,-0.1135
2318,2.318,-0.13
2319,2.319,-0.1465
2320,2.32,-0.1455
2321,2.321,-0.1485
2322,2.322,-0.1715
2323,2.323,-0.183
2324,2.324,-0.19
2325,2.325,-0.186
2326,2.326,-0.1945
2327,2.327,-0.215
2328,2.328,-0.209
2329,2.329,-0.2035
2330,2.33,-0.201
2331,2.331,-0.209
2332,2.332,-0.2185
2333,2.333,-0.2195
2334,2.334,-0.217
2335,2.335,-0.22
2336,2.336,-0.2235
2337,2.337,-0.218
2338,2.338,-0.231
2339,2.339,-0.2485
2340,2.34,-0.256
2341,2.341,-0.271
2342,2.342,-0.288
2343,2.343,-0.2795
2344,2.344,-0.271
2345,2.345,-0.29
2346,2.346,-0.314
2347,2.347,-0.322
2348,2.348,-0.304
2349,2.349,-0.304
2350,2.35,-0.3075
2351,2.351,-0.299
2352,2.352,-0.304
2353,2.353,-0.3105
2354,2.354,-0.3175
2355,2.355,-0.3175
2356,2.356,-0.3185
2357,2.357,-0.3205
2358,2.358,-0.325
2359,2.359,-0.3295
2360,2.36,-0.337
2361,2.361,-0.35
2362,2.362,-0.3625
2363,2.363,-0.3745
2364,2.364,-0.3705
2365,2.365,-0.375
2366,2.366,-0.388
2367,2.367,-0.387
2368,2.368,-0.3805
2369,2.369,-0.3795
2370,2.37,-0.3805
2371,2.371,-0.3775
2372,2.372,-0.376
2373,2.373,-0.3635
2374,2.374,-0.363
2375,2.375,-0.3725
2376,2.376,-0.367
2377,2.3770000000000002,-0.393
2378,2.378,-0.4085
2379,2.379,-0.3955
2380,2.38,-0.3905
2381,2.3810000000000002,-0.394
2382,2.382,-0.4035
2383,2.383,-0.4125
2384,2.384,-0.4165
2385,2.3850000000000002,-0.401
2386,2.386,-0.4015
2387,2.387,-0.409
2388,2.388,-0.4055
2389,2.3890000000000002,-0.399
2390,2.39,-0.3905
2391,2.391,-0.3735
2392,2.392,-0.3765
2393,2.3930000000000002,-0.395
2394,2.394,-0.3825
2395,2.395,-0.387
2396,2.396,-0.397
2397,2.3970000000000002,-0.394
2398,2.398,-0.3925
2399,2.399,-0.3885
2400,2.4,-0.403
2401,2.4010000000000002,-0.4065
2402,2.402,-0.4085
2403,2.403,-0.4
2404,2.404,-0.387
2405,2.4050000000000002,-0.3915
2406,2.406,-0.3885
2407,2.407,-0.3935
2408,2.408,-0.372
2409,2.4090000000000003,-0.3635
2410,2.41,-0.3675
2411,2.411,-0.3525
2412,2.412,-0.3475
2413,2.4130000000000003,-0.341
2414,2.414,-0.34
2415,2.415,-0.334
2416,2.416,-0.322
2417,2.4170000000000003,-0.31
2418,2.418,-0.325
2419,2.419,-0.3375
2420,2.42,-0.317
2421,2.4210000000000003,-0.307
2422,2.422,-0.3235
2423,2.423,-0.326
2424,2.424,-0.3185
2425,2.4250000000000003,-0.3285
2426,2.426,-0.3325
2427,2.427,-0.341
2428,2.428,-0.3275
2429,2.4290000000000003,-0.309
2430,2.43,-0.3125
2431,2.431,-0.2965
2432,2.432,-0.285
2433,2.433,-0.2785
2434,2.434,-0.262
2435,2.435,-0.2745
2436,2.436,-0.277
2437,2.437,-0.2675
2438,2.438,-0.2775
2439,2.439,-0.268
2440,2.44,-0.265
2441,2.441,-0.2765
2442,2.442,-0.2745
2443,2.443,-0.2715
2444,2.444,-0.265
2445,2.445,-0.2595
2446,2.446,-0.258
2447,2.447,-0.249
2448,2.448,-0.2325
2449,2.449,-0.23
2450,2.45,-0.235
2451,2.451,-0.2255
2452,2.452,-0.2185
2453,2.453,-0.2115
2454,2.454,-0.202
2455,2.455,-0.205
2456,2.456,-0.2
2457,2.457,-0.196
2458,2.458,-0.201
2459,2.459,-0.199
2460,2.46,-0.1945
2461,2.461,-0.1935
2462,2.462,-0.1925
2463,2.463,-0.192
2464,2.464,-0.1975
2465,2.465,-0.1905
2466,2.466,-0.1855
2467,2.467,-0.175
2468,2.468,-0.1705
2469,2.469,-0.1705
2470,2.47,-0.1585
2471,2.471,-0.172
2472,2.472,-0.168
2473,2.473,-0.1545
2474,2.474,-0.154
2475,2.475,-0.15
2476,2.476,-0.1515
2477,2.477,-0.1525
2478,2.478,-0.1575
2479,2.479,-0.1565
2480,2.48,-0.161
2481,2.481,-0.156
2482,2.482,-0.1525
2483,2.483,-0.1655
2484,2.484,-0.1575
2485,2.485,-0.1555
2486,2.486,-0.1465
2487,2.487,-0.1425
2488,2.488,-0.1235
2489,2.489,-0.134
2490,2.49,-0.158
2491,2.491,-0.1325
2492,2.492,-0.135
2493,2.493,-0.1325
2494,2.494,-0.147
2495,2.495,-0.154
2496,2.496,-0.136
2497,2.497,-0.143
2498,2.498,-0.138
2499,2.499,-0.1255
2500,2.5,-0.15
2501,2.501,-0.1605
2502,2.5020000000000002,-0.152
2503,2.503,-0.147
2504,2.504,-0.138
2505,2.505,-0.147
2506,2.5060000000000002,-0.154
2507,2.507,-0.1565
2508,2.508,-0.148
2509,2.509,-0.143
2510,2.5100000000000002,-0.132
2511,2.511,-0.1315
2512,2.512,-0.132
2513,2.513,-0.125
2514,2.5140000000000002,-0.133
2515,2.515,-0.1375
2516,2.516,-0.138
2517,2.517,-0.133
2518,2.5180000000000002,-0.1355
2519,2.519,-0.14
2520,2.52,-0.1415
2521,2.521,-0.1475
2522,2.5220000000000002,-0.15
2523,2.523,-0.1505
2524,2.524,-0.1515
2525,2.525,-0.1495
2526,2.5260000000000002,-0.148
2527,2.527,-0.1475
2528,2.528,-0.1385
2529,2.529,-0.1305
2530,2.5300000000000002,-0.138
2531,2.531,-0.1425
2532,2.532,-0.133
2533,2.533,-0.1315
2534,2.5340000000000003,-0.1375
2535,2.535,-0.142
2536,2.536,-0.1435
2537,2.537,-0.153
2538,2.5380000000000003,-0.1475
2539,2.539,-0.1435
2540,2.54,-0.161
2541,2.541,-0.1505
2542,2.5420000000000003,-0.1475
2543,2.543,-0.149
2544,2.544,-0.138
2545,2.545,-0.1455
2546,2.5460000000000003,-0.1565
2547,2.547,-0.152
2548,2.548,-0.1515
2549,2.549,-0.1505
2550,2.5500000000000003,-0.1415
2551,2.551,-0.141
2552,2.552,-0.121
2553,2.553,-0.121
2554,2.5540000000000003,-0.114
2555,2.555,-0.107
2556,2.556,-0.135
2557,2.557,-0.1425
2558,2.5580000000000003,-0.144
2559,2.559,-0.143
2560,2.56,-0.147
2561,2.561,-0.148
2562,2.562,-0.1465
2563,2.563,-0.147
2564,2.564,-0.1485
2565,2.565,-0.148
2566,2.566,-0.144
2567,2.567,-0.1435
2568,2.568,-0.1345
2569,2.569,-0.1315
2570,2.57,-0.1295
2571,2.571,-0.122
2572,2.572,-0.1135
2573,2.573,-0.11
2574,2.574,-0.11
2575,2.575,-0.109
2576,2.576,-0.107
2577,2.577,-0.1065
2578,2.578,-0.1125
2579,2.579,-0.111
2580,2.58,-0.109
2581,2.581,-0.112
2582,2.582,-0.1145
2583,2.583,-0.1175
2584,2.584,-0.1175
2585,2.585,-0.118
2586,2.586,-0.1205
2587,2.587,-0.119
2588,2.588,-0.1085
2589,2.589,-0.106
2590,2.59,-0.104
2591,2.591,-0.095
2592,2.592,-0.092
2593,2.593,-0.0895
2594,2.594,-0.0855
2595,2.595,-0.077
2596,2.596,-0.07
2597,2.597,-0.053
2598,2.598,-0.076
2599,2.599,-0.1105
2600,2.6,-0.0955
2601,2.601,-0.0905
2602,2.602,-0.088
2603,2.603,-0.07
2604,2.604,-0.0505
2605,2.605,-0.094
2606,2.606,-0.1345
2607,2.607,-0.111
2608,2.608,-0.098
2609,2.609,-0.0915
2610,2.61,-0.085
2611,2.611,-0.077
2612,2.612,-0.061
2613,2.613,-0.058
2614,2.614,-0.065
2615,2.615,-0.0635
2616,2.616,-0.0615
2617,2.617,-0.0595
2618,2.618,-0.0625
2619,2.619,-0.062
2620,2.62,-0.0625
2621,2.621,-0.0645
2622,2.622,-0.0665
2623,2.623,-0.0715
2624,2.624,-0.069
2625,2.625,-0.068
2626,2.626,-0.0655
2627,2.6270000000000002,-0.063
2628,2.628,-0.059
2629,2.629,-0.0535
2630,2.63,-0.0495
2631,2.6310000000000002,-0.041
2632,2.632,-0.039
2633,2.633,-0.0265
2634,2.634,-0.023
2635,2.6350000000000002,-0.046
2636,2.636,-0.0425
2637,2.637,-0.035
2638,2.638,-0.0375
2639,2.6390000000000002,-0.0395
2640,2.64,-0.04
2641,2.641,-0.0385
2642,2.642,-0.0525
2643,2.6430000000000002,-0.0575
2644,2.644,-0.047
2645,2.645,-0.045
2646,2.646,-0.0445
2647,2.6470000000000002,-0.04
2648,2.648,-0.046
2649,2.649,-0.0445
2650,2.65,-0.026
2651,2.6510000000000002,-0.0105
2652,2.652,-0.009
2653,2.653,-0.0105
2654,2.654,-0.009
2655,2.6550000000000002,-0.0085
2656,2.656,0.01
2657,2.657,0.017
2658,2.658,0.015
2659,2.6590000000000003,0.015
2660,2.66,0.003
2661,2.661,0.0115
2662,2.662,0.0095
2663,2.6630000000000003,0.004
2664,2.664,0.0125
2665,2.665,0.022
2666,2.666,0.0265
2667,2.6670000000000003,0.0245
2668,2.668,0.0355
2669,2.669,0.0435
2670,2.67,0.051
2671,2.6710000000000003,0.059
2672,2.672,0.065
2673,2.673,0.068
2674,2.674,0.068
2675,2.6750000000000003,0.0675
2676,2.676,0.061
2677,2.677,0.0605
2678,2.678,0.0525
2679,2.6790000000000003,0.042
2680,2.68,0.037
2681,2.681,0.0345
2682,2.682,0.0275
2683,2.6830000000000003,0.015
2684,2.684,0.0175
2685,2.685,0.0235
2686,2.686,0.0225
2687,2.6870000000000003,0.0065
2688,2.688,0.018
2689,2.689,0.038
2690,2.69,0.039
2691,2.691,0.047
2692,2.692,0.0365
2693,2.693,0.022
2694,2.694,0.0225
2695,2.695,0.025
2696,2.696,0.0245
2697,2.697,0.0415
2698,2.698,0.0495
2699,2.699,0.0375
2700,2.7,0.021
2701,2.701,0.01
2702,2.702,0.013
2703,2.703,0.013
2704,2.704,0.021
2705,2.705,0.0275
2706,2.706,0.0305
2707,2.707,0.043
2708,2.708,0.0545
2709,2.709,0.0515
2710,2.71,0.058
2711,2.711,0.0495
2712,2.712,0.0145
2713,2.713,0.026
2714,2.714,0.0435
2715,2.715,0.0195
2716,2.716,0.0065
2717,2.717,0.0035
2718,2.718,-0.0045
2719,2.719,-0.0115
2720,2.72,-0.0105
2721,2.721,-0.0065
2722,2.722,-0.0105
2723,2.723,-0.01
2724,2.724,-0.004
2725,2.725,-0.0035
2726,2.726,-0.006
2727,2.727,-0.004
2728,2.728,0.0025
2729,2.729,0.006
2730,2.73,0.002
2731,2.731,0.007
2732,2.732,0.013
2733,2.733,0.005
2734,2.734,0.003
2735,2.735,0.001
2736,2.736,-0.006
2737,2.737,-0.005
2738,2.738,-0.0135
2739,2.739,-0.027
2740,2.74,-0.023
2741,2.741,-0.023
2742,2.742,-0.0285
2743,2.743,-0.0315
2744,2.744,-0.0335
2745,2.745,-0.032
2746,2.746,-0.0325
2747,2.747,-0.032
2748,2.748,-0.0255
2749,2.749,-0.0275
2750,2.75,-0.027
2751,2.751,-0.0195
2752,2.7520000000000002,-0.0155
2753,2.753,-0.009
2754,2.754,-0.0085
2755,2.755,-0.011
2756,2.7560000000000002,-0.008
2757,2.757,-0.0115
2758,2.758,-0.0175
2759,2.759,-0.0165
2760,2.7600000000000002,-0.018
2761,2.761,-0.025
2762,2.762,-0.0275
2763,2.763,-0.0295
2764,2.7640000000000002,-0.0265
2765,2.765,-0.023
2766,2.766,-0.03
2767,2.767,-0.0245
2768,2.7680000000000002,-0.0115
2769,2.769,-0.0125
2770,2.77,-0.0115
2771,2.771,-0.01
2772,2.7720000000000002,-0.008
2773,2.773,0.0025
2774,2.774,-0.006
2775,2.775,-0.0095
2776,2.7760000000000002,0.0
2777,2.777,0.0005
2778,2.778,-0.006
2779,2.779,-0.0265
2780,2.7800000000000002,-0.024
2781,2.781,-0.0245
2782,2.782,-0.018
2783,2.783,-0.011
2784,2.7840000000000003,-0.0325
2785,2.785,-0.045
2786,2.786,-0.0375
2787,2.787,-0.0215
2788,2.7880000000000003,-0.02
2789,2.789,-0.0225
2790,2.79,-0.0185
2791,2.791,-0.0165
2792,2.7920000000000003,-0.0135
2793,2.793,-0.017
2794,2.794,-0.026
2795,2.795,-0.0155
2796,2.7960000000000003,-0.002
2797,2.797,-0.0015
2798,2.798,0.0
2799,2.799,0.0005
2800,2.8000000000000003,0.0015
2801,2.801,-0.0045
2802,2.802,-0.011
2803,2.803,0.0015
2804,2.8040000000000003,0.0065
2805,2.805,-0.007
2806,2.806,-0.033
2807,2.807,-0.0415
2808,2.8080000000000003,-0.0405
2809,2.809,-0.0525
2810,2.81,-0.0555
2811,2.811,-0.057
2812,2.8120000000000003,-0.057
2813,2.813,-0.0675
2814,2.814,-0.083
2815,2.815,-0.0995
2816,2.816,-0.1235
2817,2.817,-0.1545
2818,2.818,-0.1855
2819,2.819,-0.216
2820,2.82,-0.2475
2821,2.821,-0.2755
2822,2.822,-0.313
2823,2.823,-0.354
2824,2.824,-0.3845
2825,2.825,-0.4
2826,2.826,-0.4415
2827,2.827,-0.483
2828,2.828,-0.514
2829,2.829,-0.549
2830,2.83,-0.572
2831,2.831,-0.5955
2832,2.832,-0.6155
2833,2.833,-0.654
2834,2.834,-0.6715
2835,2.835,-0.6655
2836,2.836,-0.6575
2837,2.837,-0.641
2838,2.838,-0.6245
2839,2.839,-0.5995
2840,2.84,-0.587
2841,2.841,-0.565
2842,2.842,-0.554
2843,2.843,-0.5685
2844,2.844,-0.519
2845,2.845,-0.476
2846,2.846,-0.486
2847,2.847,-0.487
2848,2.848,-0.5
2849,2.849,-0.5255
2850,2.85,-0.549
2851,2.851,-0.559
2852,2.852,-0.578
2853,2.853,-0.5985
2854,2.854,-0.619
2855,2.855,-0.6245
2856,2.856,-0.634
2857,2.857,-0.671
2858,2.858,-0.6995
2859,2.859,-0.6985
2860,2.86,-0.6805
2861,2.861,-0.681
2862,2.862,-0.6685
2863,2.863,-0.6545
2864,2.864,-0.6265
2865,2.865,-0.5695
2866,2.866,-0.513
2867,2.867,-0.496
2868,2.868,-0.5045
2869,2.869,-0.4775
2870,2.87,-0.4325
2871,2.871,-0.378
2872,2.872,-0.326
2873,2.873,-0.2805
2874,2.874,-0.2275
2875,2.875,-0.1985
2876,2.876,-0.176
2877,2.8770000000000002,-0.1465
2878,2.878,-0.1335
2879,2.879,-0.1115
2880,2.88,-0.0925
2881,2.8810000000000002,-0.0805
2882,2.882,-0.069
2883,2.883,-0.046
2884,2.884,-0.014
2885,2.8850000000000002,0.001
2886,2.886,0.0295
2887,2.887,0.066
2888,2.888,0.0935
2889,2.8890000000000002,0.116
2890,2.89,0.1365
2891,2.891,0.1535
2892,2.892,0.168
2893,2.8930000000000002,0.1825
2894,2.894,0.1955
2895,2.895,0.207
2896,2.896,0.223
2897,2.8970000000000002,0.247
2898,2.898,0.246
2899,2.899,0.2295
2900,2.9,0.2115
2901,2.9010000000000002,0.203
2902,2.902,0.1875
2903,2.903,0.1835
2904,2.904,0.2005
2905,2.9050000000000002,0.167
2906,2.906,0.137
2907,2.907,0.128
2908,2.908,0.1265
2909,2.9090000000000003,0.145
2910,2.91,0.123
2911,2.911,0.112
2912,2.912,0.1205
2913,2.9130000000000003,0.12
2914,2.914,0.121
2915,2.915,0.122
2916,2.916,0.131
2917,2.9170000000000003,0.1215
2918,2.918,0.109
2919,2.919,0.1225
2920,2.92,0.125
2921,2.9210000000000003,0.1065
2922,2.922,0.0935
2923,2.923,0.076
2924,2.924,0.074
2925,2.9250000000000003,0.0825
2926,2.926,0.0795
2927,2.927,0.077
2928,2.928,0.0765
2929,2.9290000000000003,0.078
2930,2.93,0.0805
2931,2.931,0.0855
2932,2.932,0.0895
2933,2.9330000000000003,0.089
2934,2.934,0.0875
2935,2.935,0.0795
2936,2.936,0.079
2937,2.9370000000000003,0.0765
2938,2.938,0.0655
2939,2.939,0.068
2940,2.94,0.06
2941,2.9410000000000003,0.0525
2942,2.942,0.051
2943,2.943,0.0515
2944,2.944,0.0555
2945,2.945,0.055
2946,2.946,0.0555
2947,2.947,0.0465
2948,2.948,0.0625
2949,2.949,0.0745
2950,2.95,0.0595
2951,2.951,0.0605
2952,2.952,0.071
2953,2.953,0.0845
2954,2.954,0.0785
2955,2.955,0.071
2956,2.956,0.081
2957,2.957,0.071
2958,2.958,0.0725
2959,2.959,0.0745
2960,2.96,0.049
2961,2.961,0.0345
2962,2.962,0.0205
2963,2.963,0.023
2964,2.964,0.0335
2965,2.965,0.0305
2966,2.966,0.031
2967,2.967,0.0355
2968,2.968,0.0395
2969,2.969,0.041
2970,2.97,0.048
2971,2.971,0.0515
2972,2.972,0.0505
2973,2.973,0.052
2974,2.974,0.0525
2975,2.975,0.0525
2976,2.976,0.054
2977,2.977,0.047
2978,2.978,0.0395
2979,2.979,0.0375
2980,2.98,0.035
2981,2.981,0.033
2982,2.982,0.03
2983,2.983,0.028
2984,2.984,0.029
2985,2.985,0.0325
2986,2.986,0.028
2987,2.987,0.0305
2988,2.988,0.041
2989,2.989,0.042
2990,2.99,0.04
2991,2.991,0.0415
2992,2.992,0.0455
2993,2.993,0.048
2994,2.994,0.0475
2995,2.995,0.045
2996,2.996,0.0465
2997,2.997,0.0395
2998,2.998,0.0325
2999,2.999,0.0355
3000,3.0,0.032
3001,3.001,0.025
3002,3.0020000000000002,0.0255
3003,3.003,0.021
3004,3.004,0.0235
3005,3.005,0.025
3006,3.0060000000000002,0.008
3007,3.007,0.018
3008,3.008,0.028
3009,3.009,0.015
3010,3.0100000000000002,0.0305
3011,3.011,0.046
3012,3.012,0.059
3013,3.013,0.0725
3014,3.0140000000000002,0.0255
3015,3.015,-0.003
3016,3.016,0.0225
3017,3.017,0.019
3018,3.0180000000000002,-0.0015
3019,3.019,-0.0155
3020,3.02,-0.0235
3021,3.021,-0.022
3022,3.0220000000000002,-0.0285
3023,3.023,-0.036
3024,3.024,-0.0385
3025,3.025,-0.0525
3026,3.0260000000000002,-0.0485
3027,3.027,-0.024
3028,3.028,-0.03
3029,3.029,-0.037
3030,3.0300000000000002,-0.0345
3031,3.031,-0.0435
3032,3.032,-0.047
3033,3.033,-0.048
3034,3.0340000000000003,-0.0505
3035,3.035,-0.0555
3036,3.036,-0.058
3037,3.037,-0.0695
3038,3.0380000000000003,-0.0805
3039,3.039,-0.0875
3040,3.04,-0.094
3041,3.041,-0.103
3042,3.0420000000000003,-0.1125
3043,3.043,-0.119
3044,3.044,-0.124
3045,3.045,-0.127
3046,3.0460000000000003,-0.1345
3047,3.047,-0.1335
3048,3.048,-0.131
3049,3.049,-0.138
3050,3.0500000000000003,-0.1385
3051,3.051,-0.1375
3052,3.052,-0.1425
3053,3.053,-0.149
3054,3.0540000000000003,-0.155
3055,3.055,-0.1605
3056,3.056,-0.166
3057,3.057,-0.1795
3058,3.0580000000000003,-0.1915
3059,3.059,-0.2
3060,3.06,-0.212
3061,3.061,-0.223
3062,3.0620000000000003,-0.231
3063,3.063,-0.24
3064,3.064,-0.2435
3065,3.065,-0.2465
3066,3.0660000000000003,-0.257
3067,3.067,-0.255
3068,3.068,-0.259
3069,3.069,-0.2685
3070,3.0700000000000003,-0.2605
3071,3.071,-0.2585
3072,3.072,-0.2555
3073,3.073,-0.2675
3074,3.074,-0.297
3075,3.075,-0.303
3076,3.076,-0.2745
3077,3.077,-0.2915
3078,3.078,-0.317
3079,3.079,-0.3135
3080,3.08,-0.337
3081,3.081,-0.3295
3082,3.082,-0.319
3083,3.083,-0.345
3084,3.084,-0.372
3085,3.085,-0.368
3086,3.086,-0.358
3087,3.087,-0.361
3088,3.088,-0.369
3089,3.089,-0.3735
3090,3.09,-0.368
3091,3.091,-0.361
3092,3.092,-0.357
3093,3.093,-0.3495
3094,3.094,-0.3475
3095,3.095,-0.369
3096,3.096,-0.3795
3097,3.097,-0.388
3098,3.098,-0.401
3099,3.099,-0.4055
3100,3.1,-0.41
3101,3.101,-0.416
3102,3.102,-0.4155
3103,3.103,-0.4035
3104,3.104,-0.4055
3105,3.105,-0.4195
3106,3.106,-0.42
3107,3.107,-0.4145
3108,3.108,-0.3995
3109,3.109,-0.3905
3110,3.11,-0.4085
3111,3.111,-0.407
3112,3.112,-0.3995
3113,3.113,-0.4125
3114,3.114,-0.4225
3115,3.115,-0.416
3116,3.116,-0.408
3117,3.117,-0.418
3118,3.118,-0.4205
3119,3.119,-0.416
3120,3.12,-0.413
3121,3.121,-0.4185
3122,3.122,-0.4305
3123,3.123,-0.4265
3124,3.124,-0.4215
3125,3.125,-0.4175
3126,3.126,-0.418
3127,3.1270000000000002,-0.4135
3128,3.128,-0.398
3129,3.129,-0.403
3130,3.13,-0.406
3131,3.1310000000000002,-0.395
3132,3.132,-0.3875
3133,3.133,-0.382
3134,3.134,-0.379
3135,3.1350000000000002,-0.3715
3136,3.136,-0.379
3137,3.137,-0.3885
3138,3.138,-0.3785
3139,3.1390000000000002,-0.376
3140,3.14,-0.379
3141,3.141,-0.38
3142,3.142,-0.3775
3143,3.1430000000000002,-0.376
3144,3.144,-0.3775
3145,3.145,-0.374
3146,3.146,-0.3805
3147,3.1470000000000002,-0.3635
3148,3.148,-0.3425
3149,3.149,-0.35
3150,3.15,-0.3455
3151,3.1510000000000002,-0.3315
3152,3.152,-0.3125
3153,3.153,-0.3
3154,3.154,-0.3095
3155,3.1550000000000002,-0.292
3156,3.156,-0.257
3157,3.157,-0.292
3158,3.158,-0.319
3159,3.1590000000000003,-0.2925
3160,3.16,-0.2965
3161,3.161,-0.3
3162,3.162,-0.273
3163,3.1630000000000003,-0.283
3164,3.164,-0.3065
3165,3.165,-0.292
3166,3.166,-0.2895
3167,3.1670000000000003,-0.2875
3168,3.168,-0.2535
3169,3.169,-0.244
3170,3.17,-0.265
3171,3.1710000000000003,-0.2565
3172,3.172,-0.245
3173,3.173,-0.2365
3174,3.174,-0.233
3175,3.1750000000000003,-0.227
3176,3.176,-0.2045
3177,3.177,-0.214
3178,3.178,-0.226
3179,3.1790000000000003,-0.221
3180,3.18,-0.221
3181,3.181,-0.22
3182,3.182,-0.2205
3183,3.1830000000000003,-0.215
3184,3.184,-0.2095
3185,3.185,-0.2075
3186,3.186,-0.202
3187,3.1870000000000003,-0.192
3188,3.188,-0.185
3189,3.189,-0.183
3190,3.19,-0.1735
3191,3.1910000000000003,-0.163
3192,3.192,-0.1575
3193,3.193,-0.1565
3194,3.194,-0.153
3195,3.1950000000000003,-0.148
3196,3.196,-0.145
3197,3.197,-0.148
3198,3.198,-0.141
3199,3.1990000000000003,-0.1425
3200,3.2,-0.158
3201,3.201,-0.156
3202,3.202,-0.1555
3203,3.203,-0.153
3204,3.204,-0.148
3205,3.205,-0.15
3206,3.206,-0.146
3207,3.207,-0.1335
3208,3.208,-0.1335
3209,3.209,-0.131
3210,3.21,-0.1225
3211,3.211,-0.1165
3212,3.212,-0.1095
3213,3.213,-0.109
3214,3.214,-0.107
3215,3.215,-0.1045
3216,3.216,-0.099
3217,3.217,-0.1005
3218,3.218,-0.101
3219,3.219,-0.1005
3220,3.22,-0.115
3221,3.221,-0.1235
3222,3.222,-0.1205
3223,3.223,-0.1155
3224,3.224,-0.11
3225,3.225,-0.1095
3226,3.226,-0.1095
3227,3.227,-0.0985
3228,3.228,-0.0955
3229,3.229,-0.0935
3230,3.23,-0.0895
3231,3.231,-0.094
3232,3.232,-0.087
3233,3.233,-0.078
3234,3.234,-0.0715
3235,3.235,-0.067
3236,3.236,-0.069
3237,3.237,-0.0765
3238,3.238,-0.0925
3239,3.239,-0.0925
3240,3.24,-0.09
3241,3.241,-0.094
3242,3.242,-0.0865
3243,3.243,-0.085
3244,3.244,-0.0865
3245,3.245,-0.0965
3246,3.246,-0.099
3247,3.247,-0.089
3248,3.248,-0.1
3249,3.249,-0.101
3250,3.25,-0.102
3251,3.251,-0.105
3252,3.2520000000000002,-0.075
3253,3.253,-0.0685
3254,3.254,-0.078
3255,3.255,-0.075
3256,3.2560000000000002,-0.0695
3257,3.257,-0.0665
3258,3.258,-0.0925
3259,3.259,-0.107
3260,3.2600000000000002,-0.097
3261,3.261,-0.096
3262,3.262,-0.1115
3263,3.263,-0.111
3264,3.2640000000000002,-0.1005
3265,3.265,-0.0945
3266,3.266,-0.098
3267,3.267,-0.0925
3268,3.2680000000000002,-0.0765
3269,3.269,-0.099
3270,3.27,-0.1035
3271,3.271,-0.086
3272,3.2720000000000002,-0.084
3273,3.273,-0.0785
3274,3.274,-0.08
3275,3.275,-0.08
3276,3.2760000000000002,-0.08
3277,3.277,-0.085
3278,3.278,-0.088
3279,3.279,-0.088
3280,3.2800000000000002,-0.09
3281,3.281,-0.097
3282,3.282,-0.099
3283,3.283,-0.095
3284,3.2840000000000003,-0.094
3285,3.285,-0.096
3286,3.286,-0.0985
3287,3.287,-0.093
3288,3.2880000000000003,-0.091
3289,3.289,-0.0885
3290,3.29,-0.0825
3291,3.291,-0.0785
3292,3.2920000000000003,-0.074
3293,3.293,-0.0765
3294,3.294,-0.073
3295,3.295,-0.0625
3296,3.2960000000000003,-0.0715
3297,3.297,-0.082
3298,3.298,-0.0755
3299,3.299,-0.0655
3300,3.3000000000000003,-0.0725
3301,3.301,-0.086
3302,3.302,-0.09
3303,3.303,-0.0975
3304,3.3040000000000003,-0.0955
3305,3.305,-0.095
3306,3.306,-0.0935
3307,3.307,-0.071
3308,3.3080000000000003,-0.055
3309,3.309,-0.0545
3310,3.31,-0.067
3311,3.311,-0.073
3312,3.3120000000000003,-0.062
3313,3.313,-0.066
3314,3.314,-0.072
3315,3.315,-0.052
3316,3.3160000000000003,-0.0475
3317,3.317,-0.0745
3318,3.318,-0.0795
3319,3.319,-0.0775
3320,3.3200000000000003,-0.0705
3321,3.321,-0.0625
3322,3.322,-0.0645
3323,3.323,-0.0415
3324,3.3240000000000003,-0.068
3325,3.325,-0.1
3326,3.326,-0.0755
3327,3.327,-0.069
3328,3.3280000000000003,-0.0575
3329,3.329,-0.057
3330,3.33,-0.0595
3331,3.331,-0.0555
3332,3.332,-0.052
3333,3.333,-0.036
3334,3.334,-0.0435
3335,3.335,-0.0465
3336,3.336,-0.0425
3337,3.337,-0.05
3338,3.338,-0.0535
3339,3.339,-0.046
3340,3.34,-0.0385
3341,3.341,-0.029
3342,3.342,-0.037
3343,3.343,-0.0595
3344,3.344,-0.0695
3345,3.345,-0.0705
3346,3.346,-0.0525
3347,3.347,-0.0465
3348,3.348,-0.049
3349,3.349,-0.045
3350,3.35,-0.042
3351,3.351,-0.0365
3352,3.352,-0.024
3353,3.353,-0.0245
3354,3.354,-0.0405
3355,3.355,-0.035
3356,3.356,-0.0345
3357,3.357,-0.0425
3358,3.358,-0.035
3359,3.359,-0.0305
3360,3.36,-0.0415
3361,3.361,-0.043
3362,3.362,-0.0325
3363,3.363,-0.048
3364,3.364,-0.062
3365,3.365,-0.043
3366,3.366,-0.0365
3367,3.367,-0.039
3368,3.368,-0.019
3369,3.369,-0.035
3370,3.37,-0.0625
3371,3.371,-0.038
3372,3.372,-0.0295
3373,3.373,-0.038
3374,3.374,-0.032
3375,3.375,-0.023
3376,3.376,-0.023
3377,3.3770000000000002,-0.0155
3378,3.378,-0.0205
3379,3.379,-0.039
3380,3.38,-0.0315
3381,3.3810000000000002,-0.0315
3382,3.382,-0.0325
3383,3.383,-0.031
3384,3.384,-0.032
3385,3.3850000000000002,-0.0235
3386,3.386,-0.0245
3387,3.387,-0.0265
3388,3.388,-0.0255
3389,3.3890000000000002,-0.0165
3390,3.39,-0.0055
3391,3.391,0.0
3392,3.392,0.0015
3393,3.3930000000000002,0.006
3394,3.394,0.0085
3395,3.395,0.011
3396,3.396,0.0175
3397,3.3970000000000002,0.0075
3398,3.398,0.008
3399,3.399,0.0155
3400,3.4,0.007
3401,3.4010000000000002,0.012
3402,3.402,0.022
3403,3.403,0.022
3404,3.404,0.016
3405,3.4050000000000002,0.0185
3406,3.406,0.0245
3407,3.407,0.037
3408,3.408,0.05
3409,3.4090000000000003,0.052
3410,3.41,0.0605
3411,3.411,0.0565
3412,3.412,0.056
3413,3.4130000000000003,0.075
3414,3.414,0.0645
3415,3.415,0.056
3416,3.416,0.073
3417,3.4170000000000003,0.069
3418,3.418,0.064
3419,3.419,0.0615
3420,3.42,0.0625
3421,3.4210000000000003,0.0585
3422,3.422,0.0515
3423,3.423,0.0615
3424,3.424,0.0645
3425,3.4250000000000003,0.047
3426,3.426,0.0145
3427,3.427,0.005
3428,3.428,0.006
3429,3.4290000000000003,0.016
3430,3.43,0.0245
3431,3.431,0.018
3432,3.432,0.0205
3433,3.4330000000000003,0.018
3434,3.434,0.009
3435,3.435,0.0145
3436,3.436,0.019
3437,3.4370000000000003,0.007
3438,3.438,0.0045
3439,3.439,0.005
3440,3.44,0.0045
3441,3.4410000000000003,0.007
3442,3.442,0.008
3443,3.443,0.0035
3444,3.444,0.0025
3445,3.4450000000000003,-0.001
3446,3.446,0.0085
3447,3.447,0.035
3448,3.448,0.0345
3449,3.4490000000000003,0.031
3450,3.45,0.041
3451,3.451,0.0455
3452,3.452,0.0495
3453,3.4530000000000003,0.053
3454,3.454,0.051
3455,3.455,0.0545
3456,3.456,0.04
3457,3.457,0.017
3458,3.458,0.0165
3459,3.459,0.0085
3460,3.46,-0.001
3461,3.461,-0.0095
3462,3.462,-0.014
3463,3.463,-0.006
3464,3.464,0.004
3465,3.465,0.027
3466,3.466,0.0185
3467,3.467,0.004
3468,3.468,0.022
3469,3.469,0.0365
3470,3.47,0.042
3471,3.471,0.035
3472,3.472,0.039
3473,3.473,0.0475
3474,3.474,0.049
3475,3.475,0.022
3476,3.476,0.0025
3477,3.477,0.006
3478,3.478,-0.0015
3479,3.479,-0.0005
3480,3.48,-0.0065
3481,3.481,-0.01
3482,3.482,-0.0095
3483,3.483,-0.015
3484,3.484,-0.017
3485,3.485,-0.024
3486,3.486,-0.0185
3487,3.487,-0.003
3488,3.488,-0.007
3489,3.489,-0.0055
3490,3.49,-0.0025
3491,3.491,-0.0055
3492,3.492,0.0055
3493,3.493,0.0105
3494,3.494,0.012
3495,3.495,0.0055
3496,3.496,-0.009
3497,3.497,-0.0125
3498,3.498,-0.0095
3499,3.499,-0.008
3500,3.5,-0.0155
3501,3.501,-0.021
3502,3.5020000000000002,-0.0185
3503,3.503,-0.0165
3504,3.504,-0.017
3505,3.505,-0.0225
3506,3.5060000000000002,-0.015
3507,3.507,-0.01
3508,3.508,-0.0185
3509,3.509,-0.014
3510,3.5100000000000002,-0.0075
3511,3.511,-0.004
3512,3.512,-0.001
3513,3.513,0.0015
3514,3.5140000000000002,0.0005
3515,3.515,-0.002
3516,3.516,-0.002
3517,3.517,-0.008
3518,3.5180000000000002,-0.0065
3519,3.519,-0.004
3520,3.52,-0.0125
3521,3.521,-0.0185
3522,3.5220000000000002,-0.022
3523,3.523,-0.0225
3524,3.524,-0.019
3525,3.525,-0.0205
3526,3.5260000000000002,-0.017
3527,3.527,-0.0115
3528,3.528,-0.011
3529,3.529,-0.008
3530,3.5300000000000002,-0.004
3531,3.531,0.002
3532,3.532,0.005
3533,3.533,0.007
3534,3.5340000000000003,0.007
3535,3.535,0.0095
3536,3.536,0.0155
3537,3.537,0.0215
3538,3.5380000000000003,0.014
3539,3.539,-0.0105
3540,3.54,0.0075
3541,3.541,0.0345
3542,3.5420000000000003,0.0175
3543,3.543,-0.0035
3544,3.544,0.0075
3545,3.545,0.0185
3546,3.5460000000000003,0.0155
3547,3.547,0.028
3548,3.548,0.0155
3549,3.549,0.0125
3550,3.5500000000000003,0.0285
3551,3.551,0.0195
3552,3.552,0.024
3553,3.553,0.01
3554,3.5540000000000003,-0.0285
3555,3.555,-0.025
3556,3.556,-0.0145
3557,3.557,-0.034
3558,3.5580000000000003,-0.0565
3559,3.559,-0.0695
3560,3.56,-0.077
3561,3.561,-0.111
3562,3.5620000000000003,-0.1555
3563,3.563,-0.1875
3564,3.564,-0.2155
3565,3.565,-0.2395
3566,3.5660000000000003,-0.2595
3567,3.567,-0.28
3568,3.568,-0.32
3569,3.569,-0.3575
3570,3.5700000000000003,-0.379
3571,3.571,-0.39
3572,3.572,-0.4115
3573,3.573,-0.4665
3574,3.5740000000000003,-0.5205
3575,3.575,-0.55
3576,3.576,-0.572
3577,3.577,-0.597
3578,3.5780000000000003,-0.6355
3579,3.579,-0.6615
3580,3.58,-0.663
3581,3.581,-0.656
3582,3.5820000000000003,-0.6345
3583,3.583,-0.6205
3584,3.584,-0.6015
3585,3.585,-0.5795
3586,3.586,-0.561
3587,3.587,-0.5685
3588,3.588,-0.555
3589,3.589,-0.515
3590,3.59,-0.4925
3591,3.591,-0.463
3592,3.592,-0.464
3593,3.593,-0.483
3594,3.594,-0.491
3595,3.595,-0.507
3596,3.596,-0.539
3597,3.597,-0.569
3598,3.598,-0.5935
3599,3.599,-0.614
3600,3.6,-0.6185
3601,3.601,-0.6375
3602,3.602,-0.6955
3603,3.603,-0.718
3604,3.604,-0.695
3605,3.605,-0.681
3606,3.606,-0.6655
3607,3.607,-0.652
3608,3.608,-0.628
3609,3.609,-0.5915
3610,3.61,-0.547
3611,3.611,-0.506
3612,3.612,-0.4865
3613,3.613,-0.4695
3614,3.614,-0.442
3615,3.615,-0.3995
3616,3.616,-0.3585
3617,3.617,-0.325
3618,3.618,-0.281
3619,3.619,-0.2385
3620,3.62,-0.2055
3621,3.621,-0.167
3622,3.622,-0.137
3623,3.623,-0.1315
3624,3.624,-0.107
3625,3.625,-0.083
3626,3.626,-0.067
3627,3.6270000000000002,-0.042
3628,3.628,-0.018
3629,3.629,0.024
3630,3.63,0.0625
3631,3.6310000000000002,0.0965
3632,3.632,0.1325
3633,3.633,0.1685
3634,3.634,0.19
3635,3.6350000000000002,0.1825
3636,3.636,0.1795
3637,3.637,0.188
3638,3.638,0.2095
3639,3.6390000000000002,0.231
3640,3.64,0.242
3641,3.641,0.261
3642,3.642,0.261
3643,3.6430000000000002,0.25
3644,3.644,0.2465
3645,3.645,0.2455
3646,3.646,0.244
3647,3.6470000000000002,0.231
3648,3.648,0.224
3649,3.649,0.2265
3650,3.65,0.2235
3651,3.6510000000000002,0.214
3652,3.652,0.2035
3653,3.653,0.196
3654,3.654,0.187
3655,3.6550000000000002,0.1805
3656,3.656,0.171
3657,3.657,0.1555
3658,3.658,0.1755
3659,3.6590000000000003,0.1695
3660,3.66,0.128
3661,3.661,0.137
3662,3.662,0.1415
3663,3.6630000000000003,0.129
3664,3.664,0.134
3665,3.665,0.139
3666,3.666,0.1365
3667,3.6670000000000003,0.1355
3668,3.668,0.1365
3669,3.669,0.1435
3670,3.67,0.143
3671,3.6710000000000003,0.1555
3672,3.672,0.153
3673,3.673,0.1265
3674,3.674,0.131
3675,3.6750000000000003,0.141
3676,3.676,0.1345
3677,3.677,0.1235
3678,3.678,0.1325
3679,3.6790000000000003,0.1305
3680,3.68,0.1155
3681,3.681,0.0975
3682,3.682,0.089
3683,3.6830000000000003,0.098
3684,3.684,0.11
3685,3.685,0.112
3686,3.686,0.1025
3687,3.6870000000000003,0.1145
3688,3.688,0.1185
3689,3.689,0.118
3690,3.69,0.1195
3691,3.6910000000000003,0.116
3692,3.692,0.1255
3693,3.693,0.1275
3694,3.694,0.1215
3695,3.6950000000000003,0.124
3696,3.696,0.121
3697,3.697,0.1135
3698,3.698,0.1145
3699,3.6990000000000003,0.112
3700,3.7,0.111
3701,3.701,0.1025
3702,3.702,0.097
3703,3.7030000000000003,0.0965
3704,3.704,0.0905
3705,3.705,0.0965
3706,3.706,0.103
3707,3.7070000000000003,0.1065
3708,3.708,0.108
3709,3.709,0.119
3710,3.71,0.1175
3711,3.7110000000000003,0.109
3712,3.712,0.116
3713,3.713,0.123
3714,3.714,0.135
3715,3.715,0.1375
3716,3.716,0.126
3717,3.717,0.1015
3718,3.718,0.108
3719,3.719,0.101
3720,3.72,0.077
3721,3.721,0.0965
3722,3.722,0.1095
3723,3.723,0.0945
3724,3.724,0.072
3725,3.725,0.071
3726,3.726,0.0845
3727,3.727,0.094
3728,3.728,0.0985
3729,3.729,0.111
3730,3.73,0.1005
3731,3.731,0.0805
3732,3.732,0.0935
3733,3.733,0.108
3734,3.734,0.112
3735,3.735,0.104
3736,3.736,0.094
3737,3.737,0.0995
3738,3.738,0.0895
3739,3.739,0.0645
3740,3.74,0.069
3741,3.741,0.0805
3742,3.742,0.079
3743,3.743,0.081
3744,3.744,0.08
3745,3.745,0.0705
3746,3.746,0.0715
3747,3.747,0.08
3748,3.748,0.0795
3749,3.749,0.0825
3750,3.75,0.0875
3751,3.751,0.0835
3752,3.7520000000000002,0.0835
3753,3.753,0.085
3754,3.754,0.0845
3755,3.755,0.08
3756,3.7560000000000002,0.0715
3757,3.757,0.0645
3758,3.758,0.0615
3759,3.759,0.0585
3760,3.7600000000000002,0.054
3761,3.761,0.052
3762,3.762,0.043
3763,3.763,0.039
3764,3.7640000000000002,0.0345
3765,3.765,0.025
3766,3.766,0.028
3767,3.767,0.03
3768,3.7680000000000002,0.0295
3769,3.769,0.034
3770,3.77,0.038
3771,3.771,0.039
3772,3.7720000000000002,0.0475
3773,3.773,0.0405
3774,3.774,0.016
3775,3.775,0.007
3776,3.7760000000000002,0.004
3777,3.777,-0.0025
3778,3.778,-0.012
3779,3.779,-0.0055
3780,3.7800000000000002,-0.0135
3781,3.781,-0.021
3782,3.782,-0.031
3783,3.783,-0.0545
3784,3.7840000000000003,-0.0585
3785,3.785,-0.071
3786,3.786,-0.048
3787,3.787,-0.0275
3788,3.7880000000000003,-0.043
3789,3.789,-0.0595
3790,3.79,-0.0675
3791,3.791,-0.066
3792,3.7920000000000003,-0.0655
3793,3.793,-0.069
3794,3.794,-0.067
3795,3.795,-0.072
3796,3.7960000000000003,-0.1085
3797,3.797,-0.1175
3798,3.798,-0.118
3799,3.799,-0.1295
3800,3.8000000000000003,-0.138
3801,3.801,-0.1545
3802,3.802,-0.167
3803,3.803,-0.171
3804,3.8040000000000003,-0.17
3805,3.805,-0.1795
3806,3.806,-0.1755
3807,3.807,-0.1665
3808,3.8080000000000003,-0.186
3809,3.809,-0.1895
3810,3.81,-0.18
3811,3.811,-0.1945
3812,3.8120000000000003,-0.2
3813,3.813,-0.2
3814,3.814,-0.2055
3815,3.815,-0.2135
3816,3.8160000000000003,-0.227
3817,3.817,-0.2385
3818,3.818,-0.244
3819,3.819,-0.2555
3820,3.8200000000000003,-0.2675
3821,3.821,-0.2715
3822,3.822,-0.2725
3823,3.823,-0.2665
3824,3.8240000000000003,-0.28
3825,3.825,-0.297
3826,3.826,-0.2905
3827,3.827,-0.2805
3828,3.8280000000000003,-0.2865
3829,3.829,-0.2965
3830,3.83,-0.3015
3831,3.831,-0.2875
3832,3.8320000000000003,-0.2845
3833,3.833,-0.3285
3834,3.834,-0.338
3835,3.835,-0.3175
3836,3.8360000000000003,-0.313
3837,3.837,-0.3155
3838,3.838,-0.33
3839,3.839,-0.3545
3840,3.84,-0.3795
3841,3.841,-0.379
3842,3.842,-0.3765
3843,3.843,-0.383
3844,3.844,-0.3795
3845,3.845,-0.3765
3846,3.846,-0.357
3847,3.847,-0.3675
3848,3.848,-0.372
3849,3.849,-0.345
3850,3.85,-0.3615
3851,3.851,-0.3735
3852,3.852,-0.371
3853,3.853,-0.374
3854,3.854,-0.3775
3855,3.855,-0.369
3856,3.856,-0.38
3857,3.857,-0.398
3858,3.858,-0.366
3859,3.859,-0.36
3860,3.86,-0.3855
3861,3.861,-0.397
3862,3.862,-0.411
3863,3.863,-0.416
3864,3.864,-0.417
3865,3.865,-0.4185
3866,3.866,-0.4135
3867,3.867,-0.4095
3868,3.868,-0.402
3869,3.869,-0.398
3870,3.87,-0.3935
3871,3.871,-0.387
3872,3.872,-0.3845
3873,3.873,-0.379
3874,3.874,-0.3845
3875,3.875,-0.387
3876,3.876,-0.383
3877,3.8770000000000002,-0.389
3878,3.878,-0.3875
3879,3.879,-0.379
3880,3.88,-0.3755
3881,3.8810000000000002,-0.3715
3882,3.882,-0.346
3883,3.883,-0.3705
3884,3.884,-0.418
3885,3.8850000000000002,-0.4015
3886,3.886,-0.3775
3887,3.887,-0.3675
3888,3.888,-0.366
3889,3.8890000000000002,-0.3305
3890,3.89,-0.3415
3891,3.891,-0.3775
3892,3.892,-0.352
3893,3.8930000000000002,-0.346
3894,3.894,-0.3425
3895,3.895,-0.349
3896,3.896,-0.365
3897,3.8970000000000002,-0.357
3898,3.898,-0.35
3899,3.899,-0.3475
3900,3.9,-0.3465
3901,3.9010000000000002,-0.347
3902,3.902,-0.349
3903,3.903,-0.341
3904,3.904,-0.3305
3905,3.9050000000000002,-0.3325
3906,3.906,-0.317
3907,3.907,-0.2995
3908,3.908,-0.308
3909,3.9090000000000003,-0.296
3910,3.91,-0.265
3911,3.911,-0.278
3912,3.912,-0.2945
3913,3.9130000000000003,-0.2845
3914,3.914,-0.282
3915,3.915,-0.2685
3916,3.916,-0.2695
3917,3.9170000000000003,-0.286
3918,3.918,-0.2855
3919,3.919,-0.282
3920,3.92,-0.2875
3921,3.9210000000000003,-0.2865
3922,3.922,-0.278
3923,3.923,-0.257
3924,3.924,-0.2575
3925,3.9250000000000003,-0.2755
3926,3.926,-0.2515
3927,3.927,-0.255
3928,3.928,-0.2505
3929,3.9290000000000003,-0.225
3930,3.93,-0.234
3931,3.931,-0.2335
3932,3.932,-0.221
3933,3.9330000000000003,-0.222
3934,3.934,-0.2235
3935,3.935,-0.2235
3936,3.936,-0.2135
3937,3.9370000000000003,-0.1995
3938,3.938,-0.2185
3939,3.939,-0.2155
3940,3.94,-0.209
3941,3.9410000000000003,-0.215
3942,3.942,-0.213
3943,3.943,-0.2055
3944,3.944,-0.2
3945,3.9450000000000003,-0.205
3946,3.946,-0.1935
3947,3.947,-0.1915
3948,3.948,-0.2015
3949,3.9490000000000003,-0.1965
3950,3.95,-0.185
3951,3.951,-0.172
3952,3.952,-0.1625
3953,3.9530000000000003,-0.172
3954,3.954,-0.183
3955,3.955,-0.1745
3956,3.956,-0.168
3957,3.9570000000000003,-0.171
3958,3.958,-0.1705
3959,3.959,-0.1755
3960,3.96,-0.176
3961,3.9610000000000003,-0.1795
3962,3.962,-0.174
3963,3.963,-0.1625
3964,3.964,-0.1805
3965,3.9650000000000003,-0.1805
3966,3.966,-0.171
3967,3.967,-0.1705
3968,3.968,-0.1655
3969,3.969,-0.1555
3970,3.97,-0.1415
3971,3.971,-0.1375
3972,3.972,-0.136
3973,3.973,-0.1285
3974,3.974,-0.12
3975,3.975,-0.1275
3976,3.976,-0.1265
3977,3.977,-0.1295
3978,3.978,-0.142
3979,3.979,-0.1445
3980,3.98,-0.15
3981,3.981,-0.152
3982,3.982,-0.149
3983,3.983,-0.14
3984,3.984,-0.1495
3985,3.985,-0.1485
3986,3.986,-0.1175
3987,3.987,-0.1045
3988,3.988,-0.13
3989,3.989,-0.141
3990,3.99,-0.1095
3991,3.991,-0.0985
3992,3.992,-0.1135
3993,3.993,-0.102
3994,3.994,-0.1075
3995,3.995,-0.1245
3996,3.996,-0.1165
3997,3.997,-0.1215
3998,3.998,-0.1235
3999,3.999,-0.124
4000,4.0,-0.129
4001,4.001,-0.1305
4002,4.002,-0.1265
4003,4.003,-0.1275
4004,4.0040000000000004,-0.1285
4005,4.005,-0.125
4006,4.006,-0.1255
4007,4.007,-0.1195
4008,4.008,-0.1185
4009,4.009,-0.115
4010,4.01,-0.1085
4011,4.011,-0.106
4012,4.0120000000000005,-0.1045
4013,4.013,-0.1045
4014,4.014,-0.1025
4015,4.015,-0.1015
4016,4.016,-0.107
4017,4.017,-0.109
4018,4.018,-0.1095
4019,4.019,-0.1125
4020,4.0200000000000005,-0.117
4021,4.021,-0.1205
4022,4.022,-0.122
4023,4.023,-0.123
4024,4.024,-0.132
4025,4.025,-0.1365
4026,4.026,-0.1205
4027,4.027,-0.1155
4028,4.0280000000000005,-0.1185
4029,4.029,-0.114
4030,4.03,-0.108
4031,4.031,-0.1045
4032,4.032,-0.099
4033,4.033,-0.094
4034,4.034,-0.094
4035,4.035,-0.094
4036,4.0360000000000005,-0.098
4037,4.037,-0.1
4038,4.038,-0.1015
4039,4.039,-0.11
4040,4.04,-0.1135
4041,4.041,-0.109
4042,4.042,-0.1015
4043,4.043,-0.098
4044,4.0440000000000005,-0.1015
4045,4.045,-0.096
4046,4.046,-0.081
4047,4.047,-0.0795
4048,4.048,-0.106
4049,4.049,-0.107
4050,4.05,-0.0765
4051,4.051,-0.065
4052,4.0520000000000005,-0.075
4053,4.053,-0.086
4054,4.054,-0.081
4055,4.055,-0.0765
4056,4.056,-0.0855
4057,4.057,-0.1025
4058,4.058,-0.0905
4059,4.059,-0.092
4060,4.0600000000000005,-0.116
4061,4.061,-0.11
4062,4.062,-0.115
4063,4.063,-0.099
4064,4.064,-0.075
4065,4.065,-0.079
4066,4.066,-0.0915
4067,4.067,-0.105
4068,4.0680000000000005,-0.089
4069,4.069,-0.0855
4070,4.07,-0.0815
4071,4.071,-0.074
4072,4.072,-0.0735
4073,4.073,-0.0505
4074,4.074,-0.05
4075,4.075,-0.0665
4076,4.0760000000000005,-0.0705
4077,4.077,-0.0455
4078,4.078,-0.044
4079,4.079,-0.075
4080,4.08,-0.0875
4081,4.081,-0.088
4082,4.082,-0.086
4083,4.083,-0.0795
4084,4.0840000000000005,-0.082
4085,4.085,-0.0885
4086,4.086,-0.0755
4087,4.087,-0.0665
4088,4.088,-0.041
4089,4.089,-0.0775
4090,4.09,-0.107
4091,4.091,-0.0675
4092,4.0920000000000005,-0.0605
4093,4.093,-0.0585
4094,4.094,-0.0585
4095,4.095,-0.052
4096,4.096,-0.056
4097,4.097,-0.062
4098,4.098,-0.062
4099,4.099,-0.062
4100,4.1,-0.044
4101,4.101,-0.046
4102,4.102,-0.0685
4103,4.103,-0.0825
4104,4.104,-0.076
4105,4.105,-0.0635
4106,4.106,-0.0585
4107,4.107,-0.0495
4108,4.108,-0.0615
4109,4.109,-0.065
4110,4.11,-0.049
4111,4.111,-0.0445
4112,4.112,-0.0365
4113,4.113,-0.038
4114,4.114,-0.035
4115,4.115,-0.0315
4116,4.116,-0.0315
4117,4.117,-0.0395
4118,4.118,-0.0595
4119,4.119,-0.0565
4120,4.12,-0.055
4121,4.121,-0.0595
4122,4.122,-0.058
4123,4.123,-0.0655
4124,4.124,-0.0665
4125,4.125,-0.049
4126,4.126,-0.0575
4127,4.127,-0.062
4128,4.128,-0.029
4129,4.1290000000000004,-0.0255
4130,4.13,-0.0385
4131,4.131,-0.035
4132,4.132,-0.0195
4133,4.133,-0.0185
4134,4.134,-0.031
4135,4.135,-0.0275
4136,4.136,-0.0215
4137,4.1370000000000005,-0.023
4138,4.138,-0.027
4139,4.139,-0.03
4140,4.14,-0.0285
4141,4.141,-0.0275
4142,4.142,-0.02
4143,4.143,-0.0085
4144,4.144,-0.005
4145,4.1450000000000005,-0.001
4146,4.146,0.014
4147,4.147,0.028
4148,4.148,0.0275
4149,4.149,0.0335
4150,4.15,0.029
4151,4.151,0.0285
4152,4.152,0.0385
4153,4.1530000000000005,0.0495
4154,4.154,0.0635
4155,4.155,0.0485
4156,4.156,0.0495
4157,4.157,0.055
4158,4.158,0.0515
4159,4.159,0.04
4160,4.16,0.0325
4161,4.1610000000000005,0.048
4162,4.162,0.021
4163,4.163,0.002
4164,4.164,0.027
4165,4.165,0.0265
4166,4.166,0.0245
4167,4.167,0.01
4168,4.168,-0.007
4169,4.1690000000000005,-0.0065
4170,4.17,-0.008
4171,4.171,-0.006
4172,4.172,-0.013
4173,4.173,0.0005
4174,4.174,0.002
4175,4.175,-0.0065
4176,4.176,-0.008
4177,4.1770000000000005,-0.0115
4178,4.178,-0.01
4179,4.179,-0.0095
4180,4.18,-0.006
4181,4.181,0.003
4182,4.182,-0.0065
4183,4.183,-0.023
4184,4.184,-0.0175
4185,4.1850000000000005,-0.0065
4186,4.186,0.0045
4187,4.187,0.0135
4188,4.188,0.0285
4189,4.189,0.0115
4190,4.19,0.011
4191,4.191,0.0335
4192,4.192,0.036
4193,4.1930000000000005,0.049
4194,4.194,0.039
4195,4.195,0.0255
4196,4.196,0.013
4197,4.197,0.006
4198,4.198,0.0055
4199,4.199,-0.007
4200,4.2,-0.003
4201,4.2010000000000005,-0.0125
4202,4.202,-0.035
4203,4.203,-0.028
4204,4.204,-0.033
4205,4.205,-0.0385
4206,4.206,-0.021
4207,4.207,-0.0175
4208,4.208,-0.0095
4209,4.2090000000000005,0.001
4210,4.21,-0.001
4211,4.211,0.0045
4212,4.212,0.014
4213,4.213,0.01
4214,4.214,-0.0015
4215,4.215,0.002
4216,4.216,-0.004
4217,4.2170000000000005,-0.012
4218,4.218,-0.011
4219,4.219,-0.0255
4220,4.22,-0.0305
4221,4.221,-0.0335
4222,4.222,-0.0485
4223,4.223,-0.0545
4224,4.224,-0.0515
4225,4.225,-0.05
4226,4.226,-0.0485
4227,4.227,-0.0495
4228,4.228,-0.0475
4229,4.229,-0.049
4230,4.23,-0.05
4231,4.231,-0.042
4232,4.232,-0.0395
4233,4.233,-0.038
4234,4.234,-0.041
4235,4.235,-0.05
4236,4.236,-0.0495
4237,4.237,-0.025
4238,4.238,-0.0245
4239,4.239,-0.0515
4240,4.24,-0.0575
4241,4.241,-0.0535
4242,4.242,-0.0505
4243,4.243,-0.038
4244,4.244,-0.05
4245,4.245,-0.0635
4246,4.246,-0.045
4247,4.247,-0.0435
4248,4.248,-0.042
4249,4.249,-0.039
4250,4.25,-0.044
4251,4.251,-0.0385
4252,4.252,-0.025
4253,4.253,-0.0425
4254,4.2540000000000004,-0.0695
4255,4.255,-0.0525
4256,4.256,-0.05
4257,4.257,-0.0585
4258,4.258,-0.0495
4259,4.259,-0.0565
4260,4.26,-0.065
4261,4.261,-0.0625
4262,4.2620000000000005,-0.0645
4263,4.263,-0.067
4264,4.264,-0.065
4265,4.265,-0.064
4266,4.266,-0.0585
4267,4.267,-0.055
4268,4.268,-0.059
4269,4.269,-0.0545
4270,4.2700000000000005,-0.0465
4271,4.271,-0.0535
4272,4.272,-0.054
4273,4.273,-0.0555
4274,4.274,-0.0475
4275,4.275,-0.0325
4276,4.276,-0.0445
4277,4.277,-0.0425
4278,4.2780000000000005,-0.049
4279,4.279,-0.0645
4280,4.28,-0.0585
4281,4.281,-0.0515
4282,4.282,-0.0435
4283,4.283,-0.034
4284,4.284,-0.0245
4285,4.285,-0.0155
4286,4.2860000000000005,-0.008
4287,4.287,-0.0065
4288,4.288,-0.0045
4289,4.289,0.002
4290,4.29,-0.004
4291,4.291,0.0025
4292,4.292,-0.009
4293,4.293,-0.02
4294,4.2940000000000005,-0.019
4295,4.295,-0.0185
4296,4.296,-0.0135
4297,4.297,-0.0115
4298,4.298,0.009
4299,4.299,-0.062
4300,4.3,-0.1415
4301,4.301,-0.1495
4302,4.3020000000000005,-0.154
4303,4.303,-0.18
4304,4.304,-0.2255
4305,4.305,-0.241
4306,4.306,-0.2585
4307,4.307,-0.2835
4308,4.308,-0.3225
4309,4.309,-0.36
4310,4.3100000000000005,-0.371
4311,4.311,-0.402
4312,4.312,-0.468
4313,4.313,-0.504
4314,4.314,-0.5245
4315,4.315,-0.5765
4316,4.316,-0.618
4317,4.317,-0.645
4318,4.3180000000000005,-0.6825
4319,4.319,-0.712
4320,4.32,-0.722
4321,4.321,-0.7335
4322,4.322,-0.724
4323,4.323,-0.694
4324,4.324,-0.6675
4325,4.325,-0.647
4326,4.3260000000000005,-0.6285
4327,4.327,-0.618
4328,4.328,-0.609
4329,4.329,-0.5695
4330,4.33,-0.5335
4331,4.331,-0.5235
4332,4.332,-0.512
4333,4.333,-0.5275
4334,4.3340000000000005,-0.557
4335,4.335,-0.582
4336,4.336,-0.62
4337,4.337,-0.6525
4338,4.338,-0.68
4339,4.339,-0.7125
4340,4.34,-0.7245
4341,4.341,-0.7205
4342,4.3420000000000005,-0.732
4343,4.343,-0.7515
4344,4.344,-0.763
4345,4.345,-0.749
4346,4.346,-0.7315
4347,4.347,-0.715
4348,4.348,-0.677
4349,4.349,-0.6415
4350,4.3500000000000005,-0.605
4351,4.351,-0.564
4352,4.352,-0.534
4353,4.353,-0.4985
4354,4.354,-0.455
4355,4.355,-0.44
4356,4.356,-0.424
4357,4.357,-0.374
4358,4.358,-0.327
4359,4.359,-0.281
4360,4.36,-0.2465
4361,4.361,-0.219
4362,4.362,-0.188
4363,4.363,-0.167
4364,4.364,-0.1455
4365,4.365,-0.127
4366,4.366,-0.089
4367,4.367,-0.061
4368,4.368,-0.042
4369,4.369,-0.0045
4370,4.37,0.0145
4371,4.371,0.045
4372,4.372,0.057
4373,4.373,0.068
4374,4.374,0.1175
4375,4.375,0.128
4376,4.376,0.136
4377,4.377,0.1575
4378,4.378,0.169
4379,4.3790000000000004,0.184
4380,4.38,0.1865
4381,4.381,0.1935
4382,4.382,0.1955
4383,4.383,0.1995
4384,4.384,0.222
4385,4.385,0.2385
4386,4.386,0.2475
4387,4.3870000000000005,0.2415
4388,4.388,0.21
4389,4.389,0.195
4390,4.39,0.209
4391,4.391,0.1995
4392,4.392,0.186
4393,4.393,0.1765
4394,4.394,0.167
4395,4.3950000000000005,0.161
4396,4.396,0.1515
4397,4.397,0.1535
4398,4.398,0.1385
4399,4.399,0.1135
4400,4.4,0.102
4401,4.401,0.1045
4402,4.402,0.1045
4403,4.4030000000000005,0.0985
4404,4.404,0.1015
4405,4.405,0.1015
4406,4.406,0.1035
4407,4.407,0.104
4408,4.408,0.104
4409,4.409,0.104
4410,4.41,0.1055
4411,4.4110000000000005,0.11
4412,4.412,0.1065
4413,4.413,0.098
4414,4.414,0.0945
4415,4.415,0.0985
4416,4.416,0.095
4417,4.417,0.09
4418,4.418,0.0825
4419,4.4190000000000005,0.0735
4420,4.42,0.076
4421,4.421,0.0635
4422,4.422,0.048
4423,4.423,0.047
4424,4.424,0.044
4425,4.425,0.0585
4426,4.426,0.067
4427,4.4270000000000005,0.0645
4428,4.428,0.0745
4429,4.429,0.0615
4430,4.43,0.05
4431,4.431,0.06
4432,4.432,0.0655
4433,4.433,0.065
4434,4.434,0.057
4435,4.4350000000000005,0.0585
4436,4.436,0.0645
4437,4.437,0.045
4438,4.438,0.0325
4439,4.439,0.041
4440,4.44,0.038
4441,4.441,0.037
4442,4.442,0.0315
4443,4.4430000000000005,0.036
4444,4.444,0.052
4445,4.445,0.046
4446,4.446,0.0375
4447,4.447,0.0445
4448,4.448,0.0455
4449,4.449,0.0545
4450,4.45,0.062
4451,4.4510000000000005,0.06
4452,4.452,0.0745
4453,4.453,0.0695
4454,4.454,0.057
4455,4.455,0.056
4456,4.456,0.0545
4457,4.457,0.0385
4458,4.458,0.037
4459,4.4590000000000005,0.0485
4460,4.46,0.038
4461,4.461,0.0285
4462,4.462,0.0005
4463,4.463,-0.0075
4464,4.464,0.013
4465,4.465,0.0205
4466,4.466,0.0265
4467,4.4670000000000005,0.019
4468,4.468,0.0085
4469,4.469,0.0195
4470,4.47,0.025
4471,4.471,0.0375
4472,4.472,0.0465
4473,4.473,0.0325
4474,4.474,0.0365
4475,4.4750000000000005,0.0255
4476,4.476,0.0045
4477,4.477,0.0085
4478,4.478,0.0055
4479,4.479,0.0015
4480,4.48,-0.0015
4481,4.481,-0.0055
4482,4.482,0.0035
4483,4.483,0.0045
4484,4.484,-0.0035
4485,4.485,-0.003
4486,4.486,0.0075
4487,4.487,0.0135
4488,4.488,0.0275
4489,4.489,0.023
4490,4.49,0.0
4491,4.491,0.0215
4492,4.492,0.028
4493,4.493,0.008
4494,4.494,0.0035
4495,4.495,-0.003
4496,4.496,-0.017
4497,4.497,-0.016
4498,4.498,-0.019
4499,4.499,-0.0225
4500,4.5,-0.0115
4501,4.501,-0.0365
4502,4.502,-0.0515
4503,4.503,-0.0535
4504,4.5040000000000004,-0.0475
4505,4.505,-0.025
4506,4.506,-0.0195
4507,4.507,-0.013
4508,4.508,-0.016
4509,4.509,-0.017
4510,4.51,-0.021
4511,4.511,-0.0275
4512,4.5120000000000005,-0.038
4513,4.513,-0.05
4514,4.514,-0.0475
4515,4.515,-0.053
4516,4.516,-0.0655
4517,4.517,-0.0665
4518,4.518,-0.0745
4519,4.519,-0.089
4520,4.5200000000000005,-0.095
4521,4.521,-0.117
4522,4.522,-0.1185
4523,4.523,-0.117
4524,4.524,-0.1395
4525,4.525,-0.1235
4526,4.526,-0.1095
4527,4.527,-0.1225
4528,4.5280000000000005,-0.1265
4529,4.529,-0.123
4530,4.53,-0.1245
4531,4.531,-0.127
4532,4.532,-0.126
4533,4.533,-0.1315
4534,4.534,-0.129
4535,4.535,-0.133
4536,4.5360000000000005,-0.1445
4537,4.537,-0.128
4538,4.538,-0.1415
4539,4.539,-0.184
4540,4.54,-0.182
4541,4.541,-0.1795
4542,4.542,-0.1995
4543,4.543,-0.218
4544,4.5440000000000005,-0.2345
4545,4.545,-0.2325
4546,4.546,-0.2205
4547,4.547,-0.224
4548,4.548,-0.2245
4549,4.549,-0.219
4550,4.55,-0.236
4551,4.551,-0.2445
4552,4.5520000000000005,-0.243
4553,4.553,-0.245
4554,4.554,-0.2455
4555,4.555,-0.2555
4556,4.556,-0.2655
4557,4.557,-0.279
4558,4.558,-0.282
4559,4.559,-0.2865
4560,4.5600000000000005,-0.3095
4561,4.561,-0.312
4562,4.562,-0.3045
4563,4.563,-0.315
4564,4.564,-0.3275
4565,4.565,-0.3225
4566,4.566,-0.3075
4567,4.567,-0.321
4568,4.5680000000000005,-0.3395
4569,4.569,-0.335
4570,4.57,-0.336
4571,4.571,-0.3385
4572,4.572,-0.3385
4573,4.573,-0.341
4574,4.574,-0.339
4575,4.575,-0.3615
4576,4.5760000000000005,-0.372
4577,4.577,-0.369
4578,4.578,-0.3805
4579,4.579,-0.3875
4580,4.58,-0.391
4581,4.581,-0.391
4582,4.582,-0.3975
4583,4.583,-0.3935
4584,4.5840000000000005,-0.4015
4585,4.585,-0.398
4586,4.586,-0.3835
4587,4.587,-0.3945
4588,4.588,-0.396
4589,4.589,-0.39
4590,4.59,-0.385
4591,4.591,-0.3905
4592,4.5920000000000005,-0.3905
4593,4.593,-0.3855
4594,4.594,-0.388
4595,4.595,-0.372
4596,4.596,-0.39
4597,4.597,-0.421
4598,4.598,-0.416
4599,4.599,-0.402
4600,4.6000000000000005,-0.3975
4601,4.601,-0.397
4602,4.602,-0.409
4603,4.603,-0.4325
4604,4.604,-0.4255
4605,4.605,-0.4145
4606,4.606,-0.4115
4607,4.607,-0.4055
4608,4.6080000000000005,-0.4045
4609,4.609,-0.3925
4610,4.61,-0.3825
4611,4.611,-0.391
4612,4.612,-0.394
4613,4.613,-0.3885
4614,4.614,-0.378
4615,4.615,-0.37
4616,4.616,-0.3865
4617,4.617,-0.4065
4618,4.618,-0.404
4619,4.619,-0.3995
4620,4.62,-0.396
4621,4.621,-0.399
4622,4.622,-0.405
4623,4.623,-0.375
4624,4.624,-0.371
4625,4.625,-0.379
4626,4.626,-0.359
4627,4.627,-0.354
4628,4.628,-0.347
4629,4.6290000000000004,-0.336
4630,4.63,-0.3305
4631,4.631,-0.3215
4632,4.632,-0.3235
4633,4.633,-0.3325
4634,4.634,-0.322
4635,4.635,-0.321
4636,4.636,-0.321
4637,4.6370000000000005,-0.3155
4638,4.638,-0.325
4639,4.639,-0.325
4640,4.64,-0.315
4641,4.641,-0.325
4642,4.642,-0.3205
4643,4.643,-0.3115
4644,4.644,-0.308
4645,4.6450000000000005,-0.2855
4646,4.646,-0.293
4647,4.647,-0.286
4648,4.648,-0.2675
4649,4.649,-0.272
4650,4.65,-0.269
4651,4.651,-0.262
4652,4.652,-0.2615
4653,4.6530000000000005,-0.2585
4654,4.654,-0.2485
4655,4.655,-0.2625
4656,4.656,-0.2615
4657,4.657,-0.2565
4658,4.658,-0.2615
4659,4.659,-0.2515
4660,4.66,-0.2415
4661,4.6610000000000005,-0.231
4662,4.662,-0.2395
4663,4.663,-0.239
4664,4.664,-0.231
4665,4.665,-0.2415
4666,4.666,-0.2365
4667,4.667,-0.2235
4668,4.668,-0.2135
4669,4.6690000000000005,-0.207
4670,4.67,-0.205
4671,4.671,-0.2065
4672,4.672,-0.2005
4673,4.673,-0.194
4674,4.674,-0.199
4675,4.675,-0.1975
4676,4.676,-0.199
4677,4.6770000000000005,-0.2035
4678,4.678,-0.2035
4679,4.679,-0.206
4680,4.68,-0.1895
4681,4.681,-0.181
4682,4.682,-0.1895
4683,4.683,-0.1845
4684,4.684,-0.181
4685,4.6850000000000005,-0.1755
4686,4.686,-0.17
4687,4.687,-0.166
4688,4.688,-0.162
4689,4.689,-0.158
4690,4.69,-0.152
4691,4.691,-0.147
4692,4.692,-0.149
4693,4.6930000000000005,-0.1565
4694,4.694,-0.1535
4695,4.695,-0.153
4696,4.696,-0.1625
4697,4.697,-0.1635
4698,4.698,-0.1695
4699,4.699,-0.1715
4700,4.7,-0.1665
4701,4.7010000000000005,-0.155
4702,4.702,-0.153
4703,4.703,-0.152
4704,4.704,-0.134
4705,4.705,-0.1655
4706,4.706,-0.1785
4707,4.707,-0.1615
4708,4.708,-0.1395
4709,4.7090000000000005,-0.1295
4710,4.71,-0.143
4711,4.711,-0.119
4712,4.712,-0.1245
4713,4.713,-0.135
4714,4.714,-0.1225
4715,4.715,-0.1325
4716,4.716,-0.1515
4717,4.7170000000000005,-0.1605
4718,4.718,-0.161
4719,4.719,-0.1595
4720,4.72,-0.1595
4721,4.721,-0.1615
4722,4.722,-0.1645
4723,4.723,-0.167
4724,4.724,-0.16
4725,4.7250000000000005,-0.1565
4726,4.726,-0.156
4727,4.727,-0.152
4728,4.728,-0.143
4729,4.729,-0.139
4730,4.73,-0.135
4731,4.731,-0.133
4732,4.732,-0.1405
4733,4.7330000000000005,-0.1365
4734,4.734,-0.1345
4735,4.735,-0.1395
4736,4.736,-0.149
4737,4.737,-0.1535
4738,4.738,-0.1545
4739,4.739,-0.1645
4740,4.74,-0.1685
4741,4.741,-0.1655
4742,4.742,-0.1635
4743,4.743,-0.1565
4744,4.744,-0.153
4745,4.745,-0.156
4746,4.746,-0.147
4747,4.747,-0.142
4748,4.748,-0.144
4749,4.749,-0.1535
4750,4.75,-0.1485
4751,4.751,-0.129
4752,4.752,-0.123
4753,4.753,-0.1315
4754,4.7540000000000004,-0.1445
4755,4.755,-0.1505
4756,4.756,-0.1505
4757,4.757,-0.1535
4758,4.758,-0.1535
4759,4.759,-0.151
4760,4.76,-0.154
4761,4.761,-0.1555
4762,4.7620000000000005,-0.1485
4763,4.763,-0.141
4764,4.764,-0.149
4765,4.765,-0.1515
4766,4.766,-0.1575
4767,4.767,-0.156
4768,4.768,-0.1455
4769,4.769,-0.133
4770,4.7700000000000005,-0.09
4771,4.771,-0.085
4772,4.772,-0.128
4773,4.773,-0.1425
4774,4.774,-0.139
4775,4.775,-0.1495
4776,4.776,-0.15
4777,4.777,-0.1495
4778,4.7780000000000005,-0.1505
4779,4.779,-0.1445
4780,4.78,-0.1365
4781,4.781,-0.143
4782,4.782,-0.1555
4783,4.783,-0.144
4784,4.784,-0.143
4785,4.785,-0.137
4786,4.7860000000000005,-0.1235
4787,4.787,-0.1225
4788,4.788,-0.118
4789,4.789,-0.1155
4790,4.79,-0.112
4791,4.791,-0.1095
4792,4.792,-0.1075
4793,4.793,-0.108
4794,4.7940000000000005,-0.1055
4795,4.795,-0.1075
4796,4.796,-0.111
4797,4.797,-0.096
4798,4.798,-0.113
4799,4.799,-0.131
4800,4.8,-0.119
4801,4.801,-0.1085
4802,4.8020000000000005,-0.103
4803,4.803,-0.114
4804,4.804,-0.109
4805,4.805,-0.104
4806,4.806,-0.1045
4807,4.807,-0.1005
4808,4.808,-0.0945
4809,4.809,-0.079
4810,4.8100000000000005,-0.0725
4811,4.811,-0.0685
4812,4.812,-0.07
4813,4.813,-0.071
4814,4.814,-0.067
4815,4.815,-0.063
4816,4.816,-0.064
4817,4.817,-0.057
4818,4.8180000000000005,-0.047
4819,4.819,-0.0685
4820,4.82,-0.0785
4821,4.821,-0.087
4822,4.822,-0.0975
4823,4.823,-0.0795
4824,4.824,-0.074
4825,4.825,-0.088
4826,4.8260000000000005,-0.082
4827,4.827,-0.0735
4828,4.828,-0.067
4829,4.829,-0.0335
4830,4.83,-0.0465
4831,4.831,-0.071
4832,4.832,-0.0625
4833,4.833,-0.066
4834,4.8340000000000005,-0.0565
4835,4.835,-0.0585
4836,4.836,-0.0585
4837,4.837,-0.055
4838,4.838,-0.0635
4839,4.839,-0.0495
4840,4.84,-0.05
4841,4.841,-0.0595
4842,4.8420000000000005,-0.0615
4843,4.843,-0.07
4844,4.844,-0.081
4845,4.845,-0.07
4846,4.846,-0.0505
4847,4.847,-0.0555
4848,4.848,-0.0495
4849,4.849,-0.046
4850,4.8500000000000005,-0.0525
4851,4.851,-0.0475
4852,4.852,-0.044
4853,4.853,-0.042
4854,4.854,-0.0345
4855,4.855,-0.0425
4856,4.856,-0.06
4857,4.857,-0.0615
4858,4.8580000000000005,-0.066
4859,4.859,-0.0635
4860,4.86,-0.0525
4861,4.861,-0.0455
4862,4.862,-0.034
4863,4.863,-0.0375
4864,4.864,-0.0465
4865,4.865,-0.033
4866,4.866,-0.022
4867,4.867,-0.015
4868,4.868,-0.0055
4869,4.869,0.0035
4870,4.87,0.0135
4871,4.871,0.0175
4872,4.872,0.022
4873,4.873,0.0285
4874,4.874,0.0245
4875,4.875,0.0125
4876,4.876,0.013
4877,4.877,0.0205
4878,4.878,0.0205
4879,4.8790000000000004,0.0185
4880,4.88,0.0195
4881,4.881,0.021
4882,4.882,0.026
4883,4.883,0.0235
4884,4.884,0.0325
4885,4.885,0.05
4886,4.886,0.0435
4887,4.8870000000000005,0.046
4888,4.888,0.047
4889,4.889,0.0485
4890,4.89,0.0655
4891,4.891,0.068
4892,4.892,0.077
4893,4.893,0.064
4894,4.894,0.042
4895,4.8950000000000005,0.0415
4896,4.896,0.034
4897,4.897,0.0135
4898,4.898,0.012
4899,4.899,0.034
4900,4.9,0.0195
4901,4.901,0.01
4902,4.902,0.0065
4903,4.9030000000000005,-0.011
4904,4.904,-0.0045
4905,4.905,0.015
4906,4.906,0.011
4907,4.907,0.0125
4908,4.908,0.0155
4909,4.909,0.023
4910,4.91,0.035
4911,4.9110000000000005,0.012
4912,4.912,0.0195
4913,4.913,0.0165
4914,4.914,0.0155
4915,4.915,0.0275
4916,4.916,0.0265
4917,4.917,0.0315
4918,4.918,0.033
4919,4.9190000000000005,0.032
4920,4.92,0.017
4921,4.921,0.032
4922,4.922,0.042
4923,4.923,0.0325
4924,4.924,0.0365
4925,4.925,0.039
4926,4.926,0.043
4927,4.9270000000000005,0.043
4928,4.928,0.0255
4929,4.929,0.019
4930,4.93,0.032
4931,4.931,0.0185
4932,4.932,0.0055
4933,4.933,0.0115
4934,4.934,0.0165
4935,4.9350000000000005,0.026
4936,4.936,0.0235
4937,4.937,0.0165
4938,4.938,0.005
4939,4.939,-0.01
4940,4.94,-0.004
4941,4.941,-0.006
4942,4.942,0.003
4943,4.9430000000000005,0.0165
4944,4.944,-0.019
4945,4.945,-0.029
4946,4.946,-0.009
4947,4.947,-0.0025
4948,4.948,0.0075
4949,4.949,0.0165
4950,4.95,0.0145
4951,4.9510000000000005,0.0045
4952,4.952,-0.003
4953,4.953,-0.0005
4954,4.954,-0.021
4955,4.955,-0.025
4956,4.956,-0.006
4957,4.957,-0.014
4958,4.958,-0.019
4959,4.9590000000000005,-0.0305
4960,4.96,-0.0375
4961,4.961,-0.038
4962,4.962,-0.039
4963,4.963,-0.032
4964,4.964,-0.0425
4965,4.965,-0.049
4966,4.966,-0.036
4967,4.9670000000000005,-0.0285
4968,4.968,-0.0185
4969,4.969,-0.0155
4970,4.97,-0.016
4971,4.971,0.007
4972,4.972,0.0085
4973,4.973,-0.0145
4974,4.974,-0.0235
4975,4.9750000000000005,-0.0235
4976,4.976,-0.024
4977,4.977,-0.026
4978,4.978,-0.03
4979,4.979,-0.033
4980,4.98,-0.0315
4981,4.981,-0.0365
4982,4.982,-0.0395
4983,4.9830000000000005,-0.034
4984,4.984,-0.0295
4985,4.985,-0.0105
4986,4.986,-0.0215
4987,4.987,-0.0345
4988,4.988,-0.0125
4989,4.989,-0.006
4990,4.99,-0.0165
4991,4.9910000000000005,-0.013
4992,4.992,-0.0005
4993,4.993,0.0025
4994,4.994,0.008
4995,4.995,-0.019
4996,4.996,-0.029
4997,4.997,-0.01
4998,4.998,-0.013
4999,4.999,-0.02
5000,5.0,-0.034
5001,5.001,-0.0335
5002,5.002,-0.0255
5003,5.003,-0.032
5004,5.0040000000000004,-0.038
5005,5.005,-0.022
5006,5.006,-0.013
5007,5.007,-0.0185
5008,5.008,-0.0155
5009,5.009,0.01
5010,5.01,0.008
5011,5.011,-0.006
5012,5.0120000000000005,0.007
5013,5.013,0.0155
5014,5.014,0.0335
5015,5.015,0.0315
5016,5.016,0.0035
5017,5.017,-0.005
5018,5.018,0.002
5019,5.019,-0.004
5020,5.0200000000000005,-0.016
5021,5.021,-0.026
5022,5.022,-0.0285
5023,5.023,-0.036
5024,5.024,-0.048
5025,5.025,-0.0455
5026,5.026,-0.0385
5027,5.027,-0.0305
5028,5.0280000000000005,-0.045
5029,5.029,-0.0655
5030,5.03,-0.0775
5031,5.031,-0.1
5032,5.032,-0.1275
5033,5.033,-0.149
5034,5.034,-0.171
5035,5.035,-0.207
5036,5.0360000000000005,-0.2465
5037,5.037,-0.2715
5038,5.038,-0.3085
5039,5.039,-0.339
5040,5.04,-0.365
5041,5.041,-0.4465
5042,5.042,-0.494
5043,5.043,-0.522
5044,5.0440000000000005,-0.548
5045,5.045,-0.567
5046,5.046,-0.603
5047,5.047,-0.5985
5048,5.048,-0.621
5049,5.049,-0.6655
5050,5.05,-0.6835
5051,5.051,-0.684
5052,5.0520000000000005,-0.666
5053,5.053,-0.639
5054,5.054,-0.6125
5055,5.055,-0.6015
5056,5.056,-0.598
5057,5.057,-0.588
5058,5.058,-0.58
5059,5.059,-0.567
5060,5.0600000000000005,-0.531
5061,5.061,-0.501
5062,5.062,-0.5155
5063,5.063,-0.5505
5064,5.064,-0.57
5065,5.065,-0.5915
5066,5.066,-0.6125
5067,5.067,-0.6345
5068,5.0680000000000005,-0.6675
5069,5.069,-0.6815
5070,5.07,-0.683
5071,5.071,-0.6885
5072,5.072,-0.7025
5073,5.073,-0.715
5074,5.074,-0.7155
5075,5.075,-0.727
5076,5.0760000000000005,-0.73
5077,5.077,-0.707
5078,5.078,-0.6735
5079,5.079,-0.651
5080,5.08,-0.622
5081,5.081,-0.574
5082,5.082,-0.5395
5083,5.083,-0.514
5084,5.0840000000000005,-0.4875
5085,5.085,-0.4555
5086,5.086,-0.419
5087,5.087,-0.373
5088,5.088,-0.3165
5089,5.089,-0.2635
5090,5.09,-0.2215
5091,5.091,-0.185
5092,5.0920000000000005,-0.1695
5093,5.093,-0.155
5094,5.094,-0.125
5095,5.095,-0.1125
5096,5.096,-0.0925
5097,5.097,-0.0745
5098,5.098,-0.0665
5099,5.099,-0.0475
5100,5.1000000000000005,-0.0255
5101,5.101,0.0035
5102,5.102,0.032
5103,5.103,0.058
5104,5.104,0.0795
5105,5.105,0.1085
5106,5.106,0.1325
5107,5.107,0.1495
5108,5.1080000000000005,0.165
5109,5.109,0.1805
5110,5.11,0.195
5111,5.111,0.2085
5112,5.112,0.222
5113,5.113,0.239
5114,5.114,0.2415
5115,5.115,0.235
5116,5.1160000000000005,0.248
5117,5.117,0.224
5118,5.118,0.206
5119,5.119,0.2015
5120,5.12,0.17
5121,5.121,0.1495
5122,5.122,0.178
5123,5.123,0.1555
5124,5.124,0.09
5125,5.125,0.1045
5126,5.126,0.1225
5127,5.127,0.12
5128,5.128,0.119
5129,5.1290000000000004,0.124
5130,5.13,0.11
5131,5.131,0.115
5132,5.132,0.136
5133,5.133,0.138
5134,5.134,0.138
5135,5.135,0.113
5136,5.136,0.1025
5137,5.1370000000000005,0.103
5138,5.138,0.0945
5139,5.139,0.0865
5140,5.14,0.0765
5141,5.141,0.0715
5142,5.142,0.074
5143,5.143,0.079
5144,5.144,0.087
5145,5.1450000000000005,0.097
5146,5.146,0.0905
5147,5.147,0.0815
5148,5.148,0.08
5149,5.149,0.077
5150,5.15,0.094
5151,5.151,0.0945
5152,5.152,0.0715
5153,5.1530000000000005,0.0825
5154,5.154,0.086
5155,5.155,0.078
5156,5.156,0.079
5157,5.157,0.076
5158,5.158,0.0765
5159,5.159,0.0725
5160,5.16,0.0775
5161,5.1610000000000005,0.067
5162,5.162,0.065
5163,5.163,0.0665
5164,5.164,0.048
5165,5.165,0.0465
5166,5.166,0.0575
5167,5.167,0.076
5168,5.168,0.07
5169,5.1690000000000005,0.0655
5170,5.17,0.079
5171,5.171,0.081
5172,5.172,0.0875
5173,5.173,0.0685
5174,5.174,0.055
5175,5.175,0.0555
5176,5.176,0.0555
5177,5.1770000000000005,0.063
5178,5.178,0.066
5179,5.179,0.0655
5180,5.18,0.0405
5181,5.181,0.041
5182,5.182,0.0435
5183,5.183,0.0335
5184,5.184,0.04
5185,5.1850000000000005,0.045
5186,5.186,0.051
5187,5.187,0.057
5188,5.188,0.074
5189,5.189,0.0665
5190,5.19,0.051
5191,5.191,0.062
5192,5.192,0.0655
5193,5.1930000000000005,0.071
5194,5.194,0.074
5195,5.195,0.0685
5196,5.196,0.0635
5197,5.197,0.0535
5198,5.198,0.0475
5199,5.199,0.047
5200,5.2,0.0465
5201,5.2010000000000005,0.0435
5202,5.202,0.0435
5203,5.203,0.0395
5204,5.204,0.035
5205,5.205,0.038
5206,5.206,0.0395
5207,5.207,0.0455
5208,5.208,0.046
5209,5.2090000000000005,0.043
5210,5.21,0.0455
5211,5.211,0.0485
5212,5.212,0.0425
5213,5.213,0.0465
5214,5.214,0.051
5215,5.215,0.037
5216,5.216,0.037
5217,5.2170000000000005,0.0465
5218,5.218,0.0495
5219,5.219,0.036
5220,5.22,0.02
5221,5.221,0.0175
5222,5.222,0.0115
5223,5.223,0.0135
5224,5.224,0.016
5225,5.2250000000000005,0.0295
5226,5.226,0.029
5227,5.227,0.047
5228,5.228,0.0535
5229,5.229,0.0025
5230,5.23,0.001
5231,5.231,0.0065
5232,5.232,0.0155
5233,5.2330000000000005,0.02
5234,5.234,0.01
5235,5.235,0.009
5236,5.236,0.002
5237,5.237,0.0005
5238,5.238,-0.0095
5239,5.239,-0.024
5240,5.24,-0.032
5241,5.2410000000000005,-0.0315
5242,5.242,-0.034
5243,5.243,-0.0355
5244,5.244,-0.0395
5245,5.245,-0.0385
5246,5.246,-0.0355
5247,5.247,-0.0325
5248,5.248,-0.0405
5249,5.249,-0.0515
5250,5.25,-0.051
5251,5.251,-0.0495
5252,5.252,-0.0455
5253,5.253,-0.053
5254,5.2540000000000004,-0.068
5255,5.255,-0.0765
5256,5.256,-0.0745
5257,5.257,-0.09
5258,5.258,-0.107
5259,5.259,-0.111
5260,5.26,-0.115
5261,5.261,-0.117
5262,5.2620000000000005,-0.1205
5263,5.263,-0.125
5264,5.264,-0.1405
5265,5.265,-0.1495
5266,5.266,-0.15
5267,5.267,-0.149
5268,5.268,-0.151
5269,5.269,-0.1475
5270,5.2700000000000005,-0.1435
5271,5.271,-0.144
5272,5.272,-0.1565
5273,5.273,-0.1665
5274,5.274,-0.1535
5275,5.275,-0.17
5276,5.276,-0.1985
5277,5.277,-0.212
5278,5.2780000000000005,-0.219
5279,5.279,-0.2325
5280,5.28,-0.2445
5281,5.281,-0.2475
5282,5.282,-0.2385
5283,5.283,-0.243
5284,5.284,-0.2545
5285,5.285,-0.241
5286,5.2860000000000005,-0.259
5287,5.287,-0.2825
5288,5.288,-0.2665
5289,5.289,-0.26
5290,5.29,-0.2675
5291,5.291,-0.264
5292,5.292,-0.2695
5293,5.293,-0.287
5294,5.2940000000000005,-0.298
5295,5.295,-0.3025
5296,5.296,-0.308
5297,5.297,-0.3125
5298,5.298,-0.318
5299,5.299,-0.3325
5300,5.3,-0.3415
5301,5.301,-0.341
5302,5.3020000000000005,-0.344
5303,5.303,-0.352
5304,5.304,-0.3545
5305,5.305,-0.346
5306,5.306,-0.3445
5307,5.307,-0.3485
5308,5.308,-0.3465
5309,5.309,-0.3475
5310,5.3100000000000005,-0.3505
5311,5.311,-0.353
5312,5.312,-0.3545
5313,5.313,-0.3595
5314,5.314,-0.3675
5315,5.315,-0.372
5316,5.316,-0.3745
5317,5.317,-0.3785
5318,5.3180000000000005,-0.387
5319,5.319,-0.3955
5320,5.32,-0.399
5321,5.321,-0.4045
5322,5.322,-0.397
5323,5.323,-0.393
5324,5.324,-0.4065
5325,5.325,-0.4025
5326,5.3260000000000005,-0.407
5327,5.327,-0.3985
5328,5.328,-0.388
5329,5.329,-0.403
5330,5.33,-0.3935
5331,5.331,-0.382
5332,5.332,-0.3775
5333,5.333,-0.378
5334,5.3340000000000005,-0.3945
5335,5.335,-0.4045
5336,5.336,-0.4035
5337,5.337,-0.408
5338,5.338,-0.409
5339,5.339,-0.3905
5340,5.34,-0.4055
5341,5.341,-0.403
5342,5.3420000000000005,-0.39
5343,5.343,-0.408
5344,5.344,-0.393
5345,5.345,-0.3905
5346,5.346,-0.3885
5347,5.347,-0.3625
5348,5.348,-0.378
5349,5.349,-0.388
5350,5.3500000000000005,-0.371
5351,5.351,-0.369
5352,5.352,-0.364
5353,5.353,-0.357
5354,5.354,-0.3515
5355,5.355,-0.3235
5356,5.356,-0.3295
5357,5.357,-0.3795
5358,5.3580000000000005,-0.3755
5359,5.359,-0.361
5360,5.36,-0.359
5361,5.361,-0.3505
5362,5.362,-0.349
5363,5.363,-0.3415
5364,5.364,-0.35
5365,5.365,-0.3375
5366,5.3660000000000005,-0.305
5367,5.367,-0.302
5368,5.368,-0.3075
5369,5.369,-0.301
5370,5.37,-0.2895
5371,5.371,-0.2855
5372,5.372,-0.2865
5373,5.373,-0.282
5374,5.3740000000000006,-0.273
5375,5.375,-0.269
5376,5.376,-0.266
5377,5.377,-0.265
5378,5.378,-0.27
5379,5.3790000000000004,-0.2815
5380,5.38,-0.284
5381,5.381,-0.281
5382,5.382,-0.2695
5383,5.383,-0.2575
5384,5.384,-0.2585
5385,5.385,-0.243
5386,5.386,-0.2325
5387,5.3870000000000005,-0.227
5388,5.388,-0.22
5389,5.389,-0.213
5390,5.39,-0.2125
5391,5.391,-0.2075
5392,5.392,-0.1955
5393,5.393,-0.1935
5394,5.394,-0.1855
5395,5.3950000000000005,-0.199
5396,5.396,-0.2
5397,5.397,-0.189
5398,5.398,-0.2045
5399,5.399,-0.1965
5400,5.4,-0.1745
5401,5.401,-0.201
5402,5.402,-0.221
5403,5.4030000000000005,-0.2045
5404,5.404,-0.195
5405,5.405,-0.1775
5406,5.406,-0.1735
5407,5.407,-0.168
5408,5.408,-0.1585
5409,5.409,-0.1595
5410,5.41,-0.1455
5411,5.4110000000000005,-0.147
5412,5.412,-0.154
5413,5.413,-0.137
5414,5.414,-0.134
5415,5.415,-0.1535
5416,5.416,-0.145
5417,5.417,-0.1265
5418,5.418,-0.1215
5419,5.4190000000000005,-0.13
5420,5.42,-0.15
5421,5.421,-0.148
5422,5.422,-0.1235
5423,5.423,-0.1235
5424,5.424,-0.1525
5425,5.425,-0.145
5426,5.426,-0.132
5427,5.4270000000000005,-0.13
5428,5.428,-0.116
5429,5.429,-0.096
5430,5.43,-0.0815
5431,5.431,-0.103
5432,5.432,-0.1175
5433,5.433,-0.108
5434,5.434,-0.106
5435,5.4350000000000005,-0.106
5436,5.436,-0.1095
5437,5.437,-0.114
5438,5.438,-0.118
5439,5.439,-0.1185
5440,5.44,-0.124
5441,5.441,-0.132
5442,5.442,-0.125
5443,5.4430000000000005,-0.1205
5444,5.444,-0.12
5445,5.445,-0.108
5446,5.446,-0.104
5447,5.447,-0.108
5448,5.448,-0.086
5449,5.449,-0.0805
5450,5.45,-0.0995
5451,5.4510000000000005,-0.116
5452,5.452,-0.1155
5453,5.453,-0.0985
5454,5.454,-0.0885
5455,5.455,-0.1005
5456,5.456,-0.093
5457,5.457,-0.105
5458,5.458,-0.1425
5459,5.4590000000000005,-0.117
5460,5.46,-0.1115
5461,5.461,-0.12
5462,5.462,-0.115
5463,5.463,-0.1115
5464,5.464,-0.109
5465,5.465,-0.115
5466,5.466,-0.1165
5467,5.4670000000000005,-0.12
5468,5.468,-0.106
5469,5.469,-0.0945
5470,5.47,-0.0975
5471,5.471,-0.0925
5472,5.472,-0.0935
5473,5.473,-0.0985
5474,5.474,-0.099
5475,5.4750000000000005,-0.1035
5476,5.476,-0.107
5477,5.477,-0.11
5478,5.478,-0.114
5479,5.479,-0.1195
5480,5.48,-0.1225
5481,5.481,-0.1235
5482,5.482,-0.1225
5483,5.4830000000000005,-0.1205
5484,5.484,-0.122
5485,5.485,-0.117
5486,5.486,-0.115
5487,5.487,-0.115
5488,5.488,-0.1075
5489,5.489,-0.1065
5490,5.49,-0.105
5491,5.4910000000000005,-0.098
5492,5.492,-0.0985
5493,5.493,-0.1015
5494,5.494,-0.1025
5495,5.495,-0.1085
5496,5.496,-0.113
5497,5.497,-0.1135
5498,5.498,-0.119
5499,5.4990000000000006,-0.123
5500,5.5,-0.1265
5501,5.501,-0.119
5502,5.502,-0.107
5503,5.503,-0.1105
5504,5.5040000000000004,-0.1045
5505,5.505,-0.1145
5506,5.506,-0.113
5507,5.507,-0.0885
5508,5.508,-0.0865
5509,5.509,-0.0895
5510,5.51,-0.094
5511,5.511,-0.093
5512,5.5120000000000005,-0.0965
5513,5.513,-0.103
5514,5.514,-0.113
5515,5.515,-0.11
5516,5.516,-0.103
5517,5.517,-0.107
5518,5.518,-0.1045
5519,5.519,-0.112
5520,5.5200000000000005,-0.109
5521,5.521,-0.1015
5522,5.522,-0.0905
5523,5.523,-0.1005
5524,5.524,-0.119
5525,5.525,-0.0975
5526,5.526,-0.0975
5527,5.527,-0.105
5528,5.5280000000000005,-0.095
5529,5.529,-0.0905
5530,5.53,-0.091
5531,5.531,-0.0845
5532,5.532,-0.0775
5533,5.533,-0.076
5534,5.534,-0.077
5535,5.535,-0.087
5536,5.5360000000000005,-0.093
5537,5.537,-0.095
5538,5.538,-0.0925
5539,5.539,-0.095
5540,5.54,-0.096
5541,5.541,-0.094
5542,5.542,-0.093
5543,5.543,-0.0915
5544,5.5440000000000005,-0.088
5545,5.545,-0.0775
5546,5.546,-0.0745
5547,5.547,-0.0725
5548,5.548,-0.068
5549,5.549,-0.063
5550,5.55,-0.0585
5551,5.551,-0.058
5552,5.5520000000000005,-0.054
5553,5.553,-0.052
5554,5.554,-0.0585
5555,5.555,-0.0635
5556,5.556,-0.0645
5557,5.557,-0.0665
5558,5.558,-0.074
5559,5.559,-0.076
5560,5.5600000000000005,-0.075
5561,5.561,-0.077
5562,5.562,-0.0615
5563,5.563,-0.052
5564,5.564,-0.0595
5565,5.565,-0.057
5566,5.566,-0.0615
5567,5.567,-0.0545
5568,5.5680000000000005,-0.015
5569,5.569,-0.0205
5570,5.57,-0.0575
5571,5.571,-0.0425
5572,5.572,-0.0265
5573,5.573,-0.042
5574,5.574,-0.079
5575,5.575,-0.0765
5576,5.5760000000000005,-0.0435
5577,5.577,-0.045
5578,5.578,-0.0415
5579,5.579,-0.0575
5580,5.58,-0.0845
5581,5.581,-0.071
5582,5.582,-0.058
5583,5.583,-0.056
5584,5.5840000000000005,-0.046
5585,5.585,-0.0505
5586,5.586,-0.052
5587,5.587,-0.049
5588,5.588,-0.048
5589,5.589,-0.0415
5590,5.59,-0.041
5591,5.591,-0.0305
5592,5.5920000000000005,-0.0175
5593,5.593,-0.027
5594,5.594,-0.0375
5595,5.595,-0.0265
5596,5.596,-0.0255
5597,5.597,-0.041
5598,5.598,-0.033
5599,5.599,-0.031
5600,5.6000000000000005,-0.033
5601,5.601,-0.034
5602,5.602,-0.039
5603,5.603,-0.029
5604,5.604,-0.024
5605,5.605,-0.0185
5606,5.606,-0.015
5607,5.607,-0.011
5608,5.6080000000000005,-0.0045
5609,5.609,0.0015
5610,5.61,0.01
5611,5.611,0.0145
5612,5.612,0.0165
5613,5.613,0.0255
5614,5.614,0.0255
5615,5.615,0.0235
5616,5.6160000000000005,0.03
5617,5.617,0.0305
5618,5.618,0.0275
5619,5.619,0.022
5620,5.62,0.023
5621,5.621,0.044
5622,5.622,0.0645
5623,5.623,0.0475
5624,5.6240000000000006,0.0285
5625,5.625,0.047
5626,5.626,0.067
5627,5.627,0.0685
5628,5.628,0.082
5629,5.6290000000000004,0.0755
5630,5.63,0.0635
5631,5.631,0.072
5632,5.632,0.0785
5633,5.633,0.085
5634,5.634,0.0695
5635,5.635,0.058
5636,5.636,0.0625
5637,5.6370000000000005,0.0695
5638,5.638,0.0605
5639,5.639,0.054
5640,5.64,0.035
5641,5.641,0.0135
5642,5.642,0.02
5643,5.643,0.0095
5644,5.644,0.009
5645,5.6450000000000005,0.0235
5646,5.646,0.0265
5647,5.647,0.0235
5648,5.648,0.0205
5649,5.649,0.0245
5650,5.65,0.041
5651,5.651,0.0555
5652,5.652,0.039
5653,5.6530000000000005,0.029
5654,5.654,0.027
5655,5.655,0.0185
5656,5.656,0.0395
5657,5.657,0.039
5658,5.658,0.0225
5659,5.659,0.027
5660,5.66,0.031
5661,5.6610000000000005,0.0245
5662,5.662,0.031
5663,5.663,0.0525
5664,5.664,0.042
5665,5.665,0.0485
5666,5.666,0.059
5667,5.667,0.0515
5668,5.668,0.0685
5669,5.6690000000000005,0.0695
5670,5.67,0.0525
5671,5.671,0.048
5672,5.672,0.066
5673,5.673,0.077
5674,5.674,0.0425
5675,5.675,0.027
5676,5.676,0.0055
5677,5.6770000000000005,-0.022
5678,5.678,-0.0165
5679,5.679,-0.0115
5680,5.68,0.012
5681,5.681,0.012
5682,5.682,0.01
5683,5.683,0.0125
5684,5.684,0.004
5685,5.6850000000000005,0.0165
5686,5.686,0.013
5687,5.687,0.007
5688,5.688,0.0155
5689,5.689,0.0235
5690,5.69,0.0295
5691,5.691,0.031
5692,5.692,0.0265
5693,5.6930000000000005,0.02
5694,5.694,0.0195
5695,5.695,0.015
5696,5.696,0.0055
5697,5.697,0.005
5698,5.698,-0.017
5699,5.699,-0.039
5700,5.7,-0.025
5701,5.7010000000000005,-0.014
5702,5.702,-0.0175
5703,5.703,-0.0265
5704,5.704,-0.027
5705,5.705,-0.021
5706,5.706,-0.021
5707,5.707,-0.0145
5708,5.708,-0.011
5709,5.7090000000000005,-0.0045
5710,5.71,-0.0075
5711,5.711,-0.0105
5712,5.712,0.001
5713,5.713,0.0005
5714,5.714,0.002
5715,5.715,-0.007
5716,5.716,-0.009
5717,5.7170000000000005,-0.0175
5718,5.718,-0.0315
5719,5.719,-0.02
5720,5.72,-0.034
5721,5.721,-0.027
5722,5.722,-0.0135
5723,5.723,-0.03
5724,5.724,-0.029
5725,5.7250000000000005,-0.018
5726,5.726,0.002
5727,5.727,-0.013
5728,5.728,-0.0285
5729,5.729,-0.01
5730,5.73,-0.0065
5731,5.731,-0.01
5732,5.732,-0.0235
5733,5.7330000000000005,-0.0155
5734,5.734,-0.006
5735,5.735,-0.022
5736,5.736,-0.022
5737,5.737,-0.0265
5738,5.738,-0.012
5739,5.739,-0.012
5740,5.74,-0.023
5741,5.7410000000000005,-0.0065
5742,5.742,-0.032
5743,5.743,-0.0365
5744,5.744,-0.0275
5745,5.745,-0.0245
5746,5.746,-0.012
5747,5.747,-0.017
5748,5.748,-0.0095
5749,5.7490000000000006,-0.0005
5750,5.75,0.0025
5751,5.751,-0.0075
5752,5.752,-0.0105
5753,5.753,0.003
5754,5.7540000000000004,0.0005
5755,5.755,0.0
5756,5.756,0.0105
5757,5.757000000000001,0.009
5758,5.758,0.01
5759,5.759,0.02
5760,5.76,0.031
5761,5.761,0.025
5762,5.7620000000000005,0.003
5763,5.763,-0.011
5764,5.764,-0.016
5765,5.765,-0.025
5766,5.766,-0.0435
5767,5.767,-0.0405
5768,5.768,-0.039
5769,5.769,-0.045
5770,5.7700000000000005,-0.0385
5771,5.771,-0.051
5772,5.772,-0.062
5773,5.773,-0.0805
5774,5.774,-0.114
5775,5.775,-0.12
5776,5.776,-0.153
5777,5.777,-0.17
5778,5.7780000000000005,-0.197
5779,5.779,-0.265
5780,5.78,-0.277
5781,5.781,-0.3
5782,5.782,-0.3485
5783,5.783,-0.385
5784,5.784,-0.4095
5785,5.785,-0.4295
5786,5.7860000000000005,-0.4615
5787,5.787,-0.497
5788,5.788,-0.527
5789,5.789,-0.56
5790,5.79,-0.586
5791,5.791,-0.6075
5792,5.792,-0.639
5793,5.793,-0.6495
5794,5.7940000000000005,-0.649
5795,5.795,-0.646
5796,5.796,-0.6325
5797,5.797,-0.6155
5798,5.798,-0.596
5799,5.799,-0.588
5800,5.8,-0.586
5801,5.801,-0.5755
5802,5.8020000000000005,-0.5555
5803,5.803,-0.5185
5804,5.804,-0.474
5805,5.805,-0.457
5806,5.806,-0.4745
5807,5.807,-0.485
5808,5.808,-0.5015
5809,5.809,-0.5205
5810,5.8100000000000005,-0.532
5811,5.811,-0.561
5812,5.812,-0.5875
5813,5.813,-0.606
5814,5.814,-0.6235
5815,5.815,-0.652
5816,5.816,-0.6745
5817,5.817,-0.6845
5818,5.8180000000000005,-0.6605
5819,5.819,-0.65
5820,5.82,-0.6575
5821,5.821,-0.6485
5822,5.822,-0.6735
5823,5.823,-0.639
5824,5.824,-0.5685
5825,5.825,-0.5435
5826,5.8260000000000005,-0.52
5827,5.827,-0.497
5828,5.828,-0.464
5829,5.829,-0.422
