,0,1
0,0.0,-0.2445
1,0.001,-0.2425
2,0.002,-0.2415
3,0.003,-0.241
4,0.004,-0.2315
5,0.005,-0.226
6,0.006,-0.225
7,0.007,-0.2345
8,0.008,-0.2345
9,0.009000000000000001,-0.2235
10,0.01,-0.2205
11,0.011,-0.227
12,0.012,-0.232
13,0.013000000000000001,-0.2375
14,0.014,-0.2445
15,0.015,-0.237
16,0.016,-0.224
17,0.017,-0.2265
18,0.018000000000000002,-0.2265
19,0.019,-0.2275
20,0.02,-0.2325
21,0.021,-0.226
22,0.022,-0.2255
23,0.023,-0.211
24,0.024,-0.2135
25,0.025,-0.2235
26,0.026000000000000002,-0.22
27,0.027,-0.216
28,0.028,-0.2
29,0.029,-0.1965
30,0.03,-0.1965
31,0.031,-0.209
32,0.032,-0.2385
33,0.033,-0.252
34,0.034,-0.2385
35,0.035,-0.2265
36,0.036000000000000004,-0.2345
37,0.037,-0.2545
38,0.038,-0.2475
39,0.039,-0.231
40,0.04,-0.23
41,0.041,-0.22
42,0.042,-0.2145
43,0.043000000000000003,-0.2145
44,0.044,-0.2275
45,0.045,-0.2245
46,0.046,-0.2135
47,0.047,-0.2005
48,0.048,-0.2065
49,0.049,-0.228
50,0.05,-0.219
51,0.051000000000000004,-0.2155
52,0.052000000000000005,-0.2155
53,0.053,-0.2215
54,0.054,-0.2315
55,0.055,-0.228
56,0.056,-0.219
57,0.057,-0.221
58,0.058,-0.227
59,0.059000000000000004,-0.2265
60,0.06,-0.229
61,0.061,-0.2315
62,0.062,-0.2355
63,0.063,-0.2235
64,0.064,-0.2135
65,0.065,-0.216
66,0.066,-0.211
67,0.067,-0.2125
68,0.068,-0.2185
69,0.069,-0.2115
70,0.07,-0.2035
71,0.07100000000000001,-0.201
72,0.07200000000000001,-0.2045
73,0.073,-0.2305
74,0.074,-0.233
75,0.075,-0.2175
76,0.076,-0.222
77,0.077,-0.225
78,0.078,-0.2135
79,0.079,-0.2085
80,0.08,-0.2145
81,0.081,-0.2115
82,0.082,-0.2085
83,0.083,-0.208
84,0.084,-0.2105
85,0.085,-0.2155
86,0.08600000000000001,-0.2115
87,0.08700000000000001,-0.204
88,0.088,-0.193
89,0.089,-0.1775
90,0.09,-0.2005
91,0.091,-0.19
92,0.092,-0.162
93,0.093,-0.1925
94,0.094,-0.1995
95,0.095,-0.1945
96,0.096,-0.188
97,0.097,-0.194
98,0.098,-0.2125
99,0.099,-0.192
100,0.1,-0.167
101,0.101,-0.1615
102,0.10200000000000001,-0.168
103,0.10300000000000001,-0.162
104,0.10400000000000001,-0.157
105,0.105,-0.166
106,0.106,-0.151
107,0.107,-0.146
108,0.108,-0.1525
109,0.109,-0.146
110,0.11,-0.141
111,0.111,-0.142
112,0.112,-0.145
113,0.113,-0.1605
114,0.114,-0.156
115,0.115,-0.1385
116,0.116,-0.136
117,0.117,-0.137
118,0.11800000000000001,-0.154
119,0.11900000000000001,-0.135
120,0.12,-0.1175
121,0.121,-0.1245
122,0.122,-0.125
123,0.123,-0.1385
124,0.124,-0.12
125,0.125,-0.0915
126,0.126,-0.0885
127,0.127,-0.0895
128,0.128,-0.093
129,0.129,-0.0775
130,0.13,-0.078
131,0.131,-0.09
132,0.132,-0.097
133,0.133,-0.0985
134,0.134,-0.094
135,0.135,-0.102
136,0.136,-0.092
137,0.137,-0.092
138,0.138,-0.0815
139,0.139,-0.0755
140,0.14,-0.079
141,0.14100000000000001,-0.067
142,0.14200000000000002,-0.072
143,0.14300000000000002,-0.0585
144,0.14400000000000002,-0.0525
145,0.145,-0.0505
146,0.146,-0.0485
147,0.147,-0.047
148,0.148,-0.038
149,0.149,-0.0335
150,0.15,-0.014
151,0.151,-0.0195
152,0.152,-0.0285
153,0.153,-0.037
154,0.154,-0.0255
155,0.155,-0.0115
156,0.156,-0.0165
157,0.157,-0.0215
158,0.158,-0.055
159,0.159,-0.0645
160,0.16,-0.04
161,0.161,-0.007
162,0.162,-0.034
163,0.163,-0.0515
164,0.164,-0.03
165,0.165,-0.037
166,0.166,-0.0365
167,0.167,-0.02
168,0.168,0.001
169,0.169,0.0115
170,0.17,0.0055
171,0.171,-0.0165
172,0.17200000000000001,-0.0235
173,0.17300000000000001,-0.013
174,0.17400000000000002,0.003
175,0.17500000000000002,-0.013
176,0.176,-0.022
177,0.177,-0.021
178,0.178,-0.0325
179,0.179,-0.034
180,0.18,-0.0395
181,0.181,-0.0185
182,0.182,-0.011
183,0.183,-0.011
184,0.184,0.0
185,0.185,-0.0025
186,0.186,-0.0125
187,0.187,-0.0175
188,0.188,-0.018
189,0.189,-0.02
190,0.19,-0.0225
191,0.191,-0.0275
192,0.192,-0.022
193,0.193,-0.031
194,0.194,-0.041
195,0.195,-0.046
196,0.196,-0.046
197,0.197,-0.0415
198,0.198,-0.0385
199,0.199,-0.0265
200,0.2,-0.0345
201,0.201,-0.037
202,0.202,-0.0355
203,0.203,-0.0395
204,0.20400000000000001,-0.0455
205,0.20500000000000002,-0.049
206,0.20600000000000002,-0.04
207,0.20700000000000002,-0.0265
208,0.20800000000000002,-0.029
209,0.209,-0.0285
210,0.21,-0.033
211,0.211,-0.0635
212,0.212,-0.0545
213,0.213,-0.0545
214,0.214,-0.0605
215,0.215,-0.0475
216,0.216,-0.0645
217,0.217,-0.0805
218,0.218,-0.0795
219,0.219,-0.0755
220,0.22,-0.0825
221,0.221,-0.076
222,0.222,-0.0745
223,0.223,-0.0775
224,0.224,-0.074
225,0.225,-0.0795
226,0.226,-0.084
227,0.227,-0.083
228,0.228,-0.083
229,0.229,-0.0945
230,0.23,-0.08
231,0.231,-0.079
232,0.232,-0.092
233,0.233,-0.095
234,0.234,-0.086
235,0.23500000000000001,-0.075
236,0.23600000000000002,-0.0975
237,0.23700000000000002,-0.0985
238,0.23800000000000002,-0.09
239,0.23900000000000002,-0.1005
240,0.24,-0.1065
241,0.241,-0.1095
242,0.242,-0.116
243,0.243,-0.1105
244,0.244,-0.1015
245,0.245,-0.099
246,0.246,-0.1115
247,0.247,-0.1085
248,0.248,-0.086
249,0.249,-0.0835
250,0.25,-0.102
251,0.251,-0.132
252,0.252,-0.12
253,0.253,-0.1055
254,0.254,-0.1115
255,0.255,-0.1205
256,0.256,-0.1465
257,0.257,-0.1605
258,0.258,-0.137
259,0.259,-0.1315
260,0.26,-0.1425
261,0.261,-0.144
262,0.262,-0.15
263,0.263,-0.1395
264,0.264,-0.13
265,0.265,-0.126
266,0.266,-0.1305
267,0.267,-0.1205
268,0.268,-0.1175
269,0.269,-0.1195
270,0.27,-0.124
271,0.271,-0.1535
272,0.272,-0.161
273,0.273,-0.153
274,0.274,-0.1465
275,0.275,-0.149
276,0.276,-0.16
277,0.277,-0.171
278,0.278,-0.1645
279,0.279,-0.167
280,0.28,-0.157
281,0.281,-0.1345
282,0.28200000000000003,-0.141
283,0.28300000000000003,-0.1435
284,0.28400000000000003,-0.1515
285,0.28500000000000003,-0.157
286,0.28600000000000003,-0.16
287,0.28700000000000003,-0.1395
288,0.28800000000000003,-0.126
289,0.289,-0.147
290,0.29,-0.1465
291,0.291,-0.152
292,0.292,-0.1625
293,0.293,-0.1705
294,0.294,-0.1715
295,0.295,-0.1645
296,0.296,-0.1835
297,0.297,-0.188
298,0.298,-0.1715
299,0.299,-0.176
300,0.3,-0.172
301,0.301,-0.1675
302,0.302,-0.1725
303,0.303,-0.1705
304,0.304,-0.1665
305,0.305,-0.16
306,0.306,-0.161
307,0.307,-0.168
308,0.308,-0.191
309,0.309,-0.1845
310,0.31,-0.1615
311,0.311,-0.177
312,0.312,-0.1995
313,0.313,-0.1965
314,0.314,-0.1865
315,0.315,-0.1875
316,0.316,-0.184
317,0.317,-0.181
318,0.318,-0.1845
319,0.319,-0.203
320,0.32,-0.1935
321,0.321,-0.1725
322,0.322,-0.1895
323,0.323,-0.1905
324,0.324,-0.1695
325,0.325,-0.164
326,0.326,-0.168
327,0.327,-0.169
328,0.328,-0.1785
329,0.329,-0.172
330,0.33,-0.174
331,0.331,-0.2
332,0.332,-0.204
333,0.333,-0.183
334,0.334,-0.165
335,0.335,-0.1815
336,0.336,-0.171
337,0.337,-0.17
338,0.338,-0.1995
339,0.339,-0.1935
340,0.34,-0.1865
341,0.341,-0.1825
342,0.342,-0.178
343,0.343,-0.174
344,0.34400000000000003,-0.173
345,0.34500000000000003,-0.1765
346,0.34600000000000003,-0.176
347,0.34700000000000003,-0.1755
348,0.34800000000000003,-0.179
349,0.34900000000000003,-0.1745
350,0.35000000000000003,-0.1785
351,0.35100000000000003,-0.188
352,0.352,-0.186
353,0.353,-0.1935
354,0.354,-0.194
355,0.355,-0.195
356,0.356,-0.2
357,0.357,-0.1925
358,0.358,-0.1945
359,0.359,-0.1955
360,0.36,-0.1915
361,0.361,-0.1995
362,0.362,-0.1945
363,0.363,-0.1805
364,0.364,-0.181
365,0.365,-0.181
366,0.366,-0.1825
367,0.367,-0.1815
368,0.368,-0.1815
369,0.369,-0.1815
370,0.37,-0.1785
371,0.371,-0.1875
372,0.372,-0.1905
373,0.373,-0.192
374,0.374,-0.2025
375,0.375,-0.1985
376,0.376,-0.198
377,0.377,-0.2005
378,0.378,-0.198
379,0.379,-0.228
380,0.38,-0.2295
381,0.381,-0.229
382,0.382,-0.2175
383,0.383,-0.183
384,0.384,-0.1905
385,0.385,-0.1855
386,0.386,-0.183
387,0.387,-0.1745
388,0.388,-0.1845
389,0.389,-0.1915
390,0.39,-0.181
391,0.391,-0.1955
392,0.392,-0.1935
393,0.393,-0.1965
394,0.394,-0.193
395,0.395,-0.1915
396,0.396,-0.2035
397,0.397,-0.208
398,0.398,-0.194
399,0.399,-0.1955
400,0.4,-0.206
401,0.401,-0.188
402,0.402,-0.185
403,0.403,-0.217
404,0.404,-0.234
405,0.405,-0.175
406,0.406,-0.151
407,0.40700000000000003,-0.1805
408,0.40800000000000003,-0.184
409,0.40900000000000003,-0.1875
410,0.41000000000000003,-0.1855
411,0.41100000000000003,-0.1835
412,0.41200000000000003,-0.1865
413,0.41300000000000003,-0.19
414,0.41400000000000003,-0.1945
415,0.41500000000000004,-0.1935
416,0.41600000000000004,-0.1895
417,0.417,-0.189
418,0.418,-0.1875
419,0.419,-0.193
420,0.42,-0.18
421,0.421,-0.1735
422,0.422,-0.192
423,0.423,-0.19
424,0.424,-0.173
425,0.425,-0.174
426,0.426,-0.188
427,0.427,-0.1875
428,0.428,-0.1925
429,0.429,-0.1865
430,0.43,-0.1715
431,0.431,-0.1765
432,0.432,-0.177
433,0.433,-0.1715
434,0.434,-0.1765
435,0.435,-0.1815
436,0.436,-0.1925
437,0.437,-0.2015
438,0.438,-0.186
439,0.439,-0.1945
440,0.44,-0.201
441,0.441,-0.1755
442,0.442,-0.1755
443,0.443,-0.187
444,0.444,-0.183
445,0.445,-0.184
446,0.446,-0.174
447,0.447,-0.163
448,0.448,-0.1755
449,0.449,-0.181
450,0.45,-0.1745
451,0.451,-0.174
452,0.452,-0.1795
453,0.453,-0.163
454,0.454,-0.184
455,0.455,-0.195
456,0.456,-0.1845
457,0.457,-0.2015
458,0.458,-0.1825
459,0.459,-0.1845
460,0.46,-0.1895
461,0.461,-0.182
462,0.462,-0.188
463,0.463,-0.184
464,0.464,-0.1675
465,0.465,-0.1555
466,0.466,-0.1555
467,0.467,-0.1605
468,0.468,-0.1685
469,0.46900000000000003,-0.175
470,0.47000000000000003,-0.177
471,0.47100000000000003,-0.174
472,0.47200000000000003,-0.1865
473,0.47300000000000003,-0.191
474,0.47400000000000003,-0.163
475,0.47500000000000003,-0.146
476,0.47600000000000003,-0.153
477,0.47700000000000004,-0.158
478,0.47800000000000004,-0.1495
479,0.47900000000000004,-0.149
480,0.48,-0.148
481,0.481,-0.139
482,0.482,-0.143
483,0.483,-0.127
484,0.484,-0.136
485,0.485,-0.139
486,0.486,-0.1185
487,0.487,-0.114
488,0.488,-0.118
489,0.489,-0.112
490,0.49,-0.105
491,0.491,-0.119
492,0.492,-0.0925
493,0.493,-0.0975
494,0.494,-0.101
495,0.495,-0.089
496,0.496,-0.115
497,0.497,-0.1065
498,0.498,-0.101
499,0.499,-0.1295
500,0.5,-0.133
501,0.501,-0.1255
502,0.502,-0.128
503,0.503,-0.1255
504,0.504,-0.128
505,0.505,-0.1295
506,0.506,-0.1375
507,0.507,-0.131
508,0.508,-0.1285
509,0.509,-0.1255
510,0.51,-0.1365
511,0.511,-0.163
512,0.512,-0.157
513,0.513,-0.1425
514,0.514,-0.115
515,0.515,-0.1005
516,0.516,-0.111
517,0.517,-0.116
518,0.518,-0.1075
519,0.519,-0.1105
520,0.52,-0.1105
521,0.521,-0.1075
522,0.522,-0.118
523,0.523,-0.1185
524,0.524,-0.1185
525,0.525,-0.129
526,0.526,-0.14
527,0.527,-0.145
528,0.528,-0.1475
529,0.529,-0.133
530,0.53,-0.137
531,0.531,-0.155
532,0.532,-0.163
533,0.533,-0.1695
534,0.534,-0.175
535,0.535,-0.178
536,0.536,-0.179
537,0.537,-0.1835
538,0.538,-0.1805
539,0.539,-0.182
540,0.54,-0.182
541,0.541,-0.185
542,0.542,-0.182
543,0.543,-0.18
544,0.544,-0.1815
545,0.545,-0.1775
546,0.546,-0.182
547,0.547,-0.188
548,0.548,-0.1855
549,0.549,-0.19
550,0.55,-0.2145
551,0.551,-0.21
552,0.552,-0.189
553,0.553,-0.194
554,0.554,-0.2095
555,0.555,-0.211
556,0.556,-0.2185
557,0.557,-0.2105
558,0.558,-0.2155
559,0.559,-0.241
560,0.56,-0.226
561,0.561,-0.2255
562,0.562,-0.2185
563,0.5630000000000001,-0.2065
564,0.5640000000000001,-0.193
565,0.5650000000000001,-0.189
566,0.5660000000000001,-0.2095
567,0.5670000000000001,-0.1955
568,0.5680000000000001,-0.1935
569,0.5690000000000001,-0.1875
570,0.5700000000000001,-0.1725
571,0.5710000000000001,-0.1875
572,0.5720000000000001,-0.203
573,0.5730000000000001,-0.214
574,0.5740000000000001,-0.2195
575,0.5750000000000001,-0.2235
576,0.5760000000000001,-0.22
577,0.577,-0.2065
578,0.578,-0.1975
579,0.579,-0.204
580,0.58,-0.214
581,0.581,-0.2175
582,0.582,-0.212
583,0.583,-0.1965
584,0.584,-0.203
585,0.585,-0.219
586,0.586,-0.209
587,0.587,-0.1995
588,0.588,-0.1995
589,0.589,-0.197
590,0.59,-0.2015
591,0.591,-0.2
592,0.592,-0.2
593,0.593,-0.209
594,0.594,-0.207
595,0.595,-0.208
596,0.596,-0.218
597,0.597,-0.217
598,0.598,-0.217
599,0.599,-0.2285
600,0.6,-0.2325
601,0.601,-0.245
602,0.602,-0.26
603,0.603,-0.265
604,0.604,-0.274
605,0.605,-0.2825
606,0.606,-0.2925
607,0.607,-0.303
608,0.608,-0.318
609,0.609,-0.323
610,0.61,-0.332
611,0.611,-0.344
612,0.612,-0.3585
613,0.613,-0.3685
614,0.614,-0.363
615,0.615,-0.362
616,0.616,-0.352
617,0.617,-0.337
618,0.618,-0.3105
619,0.619,-0.296
620,0.62,-0.273
621,0.621,-0.2405
622,0.622,-0.211
623,0.623,-0.1675
624,0.624,-0.1315
625,0.625,-0.0885
626,0.626,-0.049
627,0.627,-0.018
628,0.628,0.023
629,0.629,0.072
630,0.63,0.1075
631,0.631,0.1535
632,0.632,0.215
633,0.633,0.242
634,0.634,0.271
635,0.635,0.302
636,0.636,0.315
637,0.637,0.325
638,0.638,0.3155
639,0.639,0.3185
640,0.64,0.3375
641,0.641,0.3445
642,0.642,0.3445
643,0.643,0.345
644,0.644,0.3245
645,0.645,0.2815
646,0.646,0.228
647,0.647,0.18
648,0.648,0.1455
649,0.649,0.117
650,0.65,0.122
651,0.651,0.1275
652,0.652,0.118
653,0.653,0.1105
654,0.654,0.1105
655,0.655,0.092
656,0.656,0.053
657,0.657,0.0805
658,0.658,0.0835
659,0.659,0.047
660,0.66,0.051
661,0.661,0.0435
662,0.662,0.006
663,0.663,0.002
664,0.664,-0.0005
665,0.665,-0.045
666,0.666,-0.0425
667,0.667,-0.0575
668,0.668,-0.071
669,0.669,-0.0715
670,0.67,-0.0845
671,0.671,-0.1115
672,0.672,-0.1585
673,0.673,-0.19
674,0.674,-0.2335
675,0.675,-0.256
676,0.676,-0.286
677,0.677,-0.3015
678,0.678,-0.3115
679,0.679,-0.345
680,0.68,-0.3635
681,0.681,-0.3955
682,0.682,-0.4275
683,0.683,-0.432
684,0.684,-0.4425
685,0.685,-0.4535
686,0.686,-0.473
687,0.687,-0.5035
688,0.6880000000000001,-0.512
689,0.6890000000000001,-0.531
690,0.6900000000000001,-0.534
691,0.6910000000000001,-0.5365
692,0.6920000000000001,-0.5615
693,0.6930000000000001,-0.5795
694,0.6940000000000001,-0.5945
695,0.6950000000000001,-0.6005
696,0.6960000000000001,-0.616
697,0.6970000000000001,-0.6245
698,0.6980000000000001,-0.6175
699,0.6990000000000001,-0.607
700,0.7000000000000001,-0.6085
701,0.7010000000000001,-0.621
702,0.7020000000000001,-0.6105
703,0.7030000000000001,-0.5915
704,0.704,-0.5705
705,0.705,-0.558
706,0.706,-0.5465
707,0.707,-0.529
708,0.708,-0.5025
709,0.709,-0.479
710,0.71,-0.4675
711,0.711,-0.436
712,0.712,-0.4195
713,0.713,-0.421
714,0.714,-0.415
715,0.715,-0.389
716,0.716,-0.351
717,0.717,-0.3365
718,0.718,-0.344
719,0.719,-0.336
720,0.72,-0.306
721,0.721,-0.3105
722,0.722,-0.3055
723,0.723,-0.267
724,0.724,-0.2585
725,0.725,-0.2555
726,0.726,-0.2295
727,0.727,-0.2335
728,0.728,-0.243
729,0.729,-0.2105
730,0.73,-0.2165
731,0.731,-0.2365
732,0.732,-0.216
733,0.733,-0.222
734,0.734,-0.2265
735,0.735,-0.2295
736,0.736,-0.2425
737,0.737,-0.219
738,0.738,-0.2075
739,0.739,-0.224
740,0.74,-0.2135
741,0.741,-0.189
742,0.742,-0.2115
743,0.743,-0.236
744,0.744,-0.2165
745,0.745,-0.1975
746,0.746,-0.1995
747,0.747,-0.197
748,0.748,-0.1925
749,0.749,-0.193
750,0.75,-0.206
751,0.751,-0.217
752,0.752,-0.205
753,0.753,-0.2
754,0.754,-0.205
755,0.755,-0.2085
756,0.756,-0.2255
757,0.757,-0.2155
758,0.758,-0.1905
759,0.759,-0.2155
760,0.76,-0.2245
761,0.761,-0.223
762,0.762,-0.232
763,0.763,-0.2235
764,0.764,-0.2005
765,0.765,-0.182
766,0.766,-0.193
767,0.767,-0.2005
768,0.768,-0.199
769,0.769,-0.1925
770,0.77,-0.2025
771,0.771,-0.205
772,0.772,-0.197
773,0.773,-0.207
774,0.774,-0.2125
775,0.775,-0.21
776,0.776,-0.214
777,0.777,-0.2105
778,0.778,-0.2215
779,0.779,-0.224
780,0.78,-0.1915
781,0.781,-0.2005
782,0.782,-0.205
783,0.783,-0.1985
784,0.784,-0.2055
785,0.785,-0.201
786,0.786,-0.193
787,0.787,-0.1875
788,0.788,-0.2025
789,0.789,-0.1925
790,0.79,-0.1955
791,0.791,-0.204
792,0.792,-0.193
793,0.793,-0.2085
794,0.794,-0.206
795,0.795,-0.2045
796,0.796,-0.2065
797,0.797,-0.201
798,0.798,-0.1985
799,0.799,-0.198
800,0.8,-0.1945
801,0.801,-0.1885
802,0.802,-0.187
803,0.803,-0.181
804,0.804,-0.1905
805,0.805,-0.2025
806,0.806,-0.2075
807,0.807,-0.211
808,0.808,-0.2165
809,0.809,-0.2265
810,0.81,-0.206
811,0.811,-0.1845
812,0.812,-0.165
813,0.8130000000000001,-0.1795
814,0.8140000000000001,-0.1975
815,0.8150000000000001,-0.179
816,0.8160000000000001,-0.1865
817,0.8170000000000001,-0.194
818,0.8180000000000001,-0.2
819,0.8190000000000001,-0.1945
820,0.8200000000000001,-0.1885
821,0.8210000000000001,-0.2005
822,0.8220000000000001,-0.2025
823,0.8230000000000001,-0.1665
824,0.8240000000000001,-0.1545
825,0.8250000000000001,-0.169
826,0.8260000000000001,-0.1595
827,0.8270000000000001,-0.161
828,0.8280000000000001,-0.1725
829,0.8290000000000001,-0.174
830,0.8300000000000001,-0.1655
831,0.8310000000000001,-0.1635
832,0.8320000000000001,-0.148
833,0.833,-0.1515
834,0.834,-0.1655
835,0.835,-0.1755
836,0.836,-0.1855
837,0.837,-0.1785
838,0.838,-0.178
839,0.839,-0.169
840,0.84,-0.1585
841,0.841,-0.148
842,0.842,-0.1495
843,0.843,-0.157
844,0.844,-0.139
845,0.845,-0.1295
846,0.846,-0.129
847,0.847,-0.1355
848,0.848,-0.1495
849,0.849,-0.137
850,0.85,-0.13
851,0.851,-0.131
852,0.852,-0.127
853,0.853,-0.1245
854,0.854,-0.1175
855,0.855,-0.114
856,0.856,-0.112
857,0.857,-0.1045
858,0.858,-0.1045
859,0.859,-0.1025
860,0.86,-0.0935
861,0.861,-0.089
862,0.862,-0.085
863,0.863,-0.0675
864,0.864,-0.0615
865,0.865,-0.0885
866,0.866,-0.0855
867,0.867,-0.0745
868,0.868,-0.071
869,0.869,-0.061
870,0.87,-0.0645
871,0.871,-0.0615
872,0.872,-0.0595
873,0.873,-0.055
874,0.874,-0.0575
875,0.875,-0.0555
876,0.876,-0.0535
877,0.877,-0.064
878,0.878,-0.0565
879,0.879,-0.0495
880,0.88,-0.038
881,0.881,-0.042
882,0.882,-0.0215
883,0.883,0.025
884,0.884,0.0165
885,0.885,-0.0165
886,0.886,-0.038
887,0.887,-0.037
888,0.888,-0.0125
889,0.889,0.0145
890,0.89,0.0095
891,0.891,0.0035
892,0.892,0.0
893,0.893,-0.0035
894,0.894,-0.004
895,0.895,-0.0025
896,0.896,0.001
897,0.897,0.005
898,0.898,0.008
899,0.899,0.0075
900,0.9,0.027
901,0.901,0.0295
902,0.902,0.0405
903,0.903,0.0395
904,0.904,0.027
905,0.905,0.02
906,0.906,0.008
907,0.907,0.0255
908,0.908,0.029
909,0.909,0.0335
910,0.91,0.038
911,0.911,0.0395
912,0.912,0.034
913,0.913,0.01
914,0.914,0.0045
915,0.915,0.012
916,0.916,0.008
917,0.917,0.0205
918,0.918,0.058
919,0.919,0.0515
920,0.92,0.0455
921,0.921,0.071
922,0.922,0.07
923,0.923,0.0585
924,0.924,0.0455
925,0.925,0.027
926,0.926,0.029
927,0.927,0.041
928,0.928,0.0395
929,0.929,0.033
930,0.93,0.044
931,0.931,0.0455
932,0.932,0.036
933,0.933,0.0305
934,0.934,0.0045
935,0.935,-0.0005
936,0.936,0.015
937,0.937,0.021
938,0.9380000000000001,0.0245
939,0.9390000000000001,0.0325
940,0.9400000000000001,0.0355
941,0.9410000000000001,0.0245
942,0.9420000000000001,0.025
943,0.9430000000000001,0.0225
944,0.9440000000000001,0.019
945,0.9450000000000001,0.0215
946,0.9460000000000001,0.0165
947,0.9470000000000001,0.019
948,0.9480000000000001,0.026
949,0.9490000000000001,0.0165
950,0.9500000000000001,-0.021
951,0.9510000000000001,-0.0125
952,0.9520000000000001,0.008
953,0.9530000000000001,-0.0105
954,0.9540000000000001,-0.0165
955,0.9550000000000001,-0.0275
956,0.9560000000000001,-0.0335
957,0.9570000000000001,-0.028
958,0.9580000000000001,-0.03
959,0.9590000000000001,-0.0335
960,0.96,-0.0305
961,0.961,-0.0335
962,0.962,-0.034
963,0.963,-0.033
964,0.964,-0.034
965,0.965,-0.032
966,0.966,-0.033
967,0.967,-0.048
968,0.968,-0.0515
969,0.969,-0.041
970,0.97,-0.051
971,0.971,-0.059
972,0.972,-0.054
973,0.973,-0.0595
974,0.974,-0.0895
975,0.975,-0.098
976,0.976,-0.07
977,0.977,-0.0585
978,0.978,-0.0605
979,0.979,-0.0415
980,0.98,-0.069
981,0.981,-0.0975
982,0.982,-0.084
983,0.983,-0.0685
984,0.984,-0.0555
985,0.985,-0.081
986,0.986,-0.049
987,0.987,-0.033
988,0.988,-0.0775
989,0.989,-0.0915
990,0.99,-0.0985
991,0.991,-0.098
992,0.992,-0.098
993,0.993,-0.091
994,0.994,-0.0975
995,0.995,-0.098
996,0.996,-0.089
997,0.997,-0.0855
998,0.998,-0.099
999,0.999,-0.1125
1000,1.0,-0.1055
1001,1.0010000000000001,-0.1085
1002,1.002,-0.096
1003,1.0030000000000001,-0.092
1004,1.004,-0.0965
1005,1.0050000000000001,-0.093
1006,1.006,-0.092
1007,1.0070000000000001,-0.105
1008,1.008,-0.1125
1009,1.0090000000000001,-0.109
1010,1.01,-0.1095
1011,1.0110000000000001,-0.103
1012,1.012,-0.113
1013,1.0130000000000001,-0.1185
1014,1.014,-0.12
1015,1.0150000000000001,-0.1255
1016,1.016,-0.13
1017,1.0170000000000001,-0.135
1018,1.018,-0.1285
1019,1.0190000000000001,-0.1115
1020,1.02,-0.1165
1021,1.0210000000000001,-0.1255
1022,1.022,-0.122
1023,1.0230000000000001,-0.1255
1024,1.024,-0.13
1025,1.025,-0.118
1026,1.026,-0.1045
1027,1.027,-0.124
1028,1.028,-0.142
1029,1.029,-0.13
1030,1.03,-0.132
1031,1.031,-0.1325
1032,1.032,-0.1225
1033,1.033,-0.153
1034,1.034,-0.1755
1035,1.035,-0.1725
1036,1.036,-0.1675
1037,1.037,-0.1755
1038,1.038,-0.1685
1039,1.039,-0.1465
1040,1.04,-0.1355
1041,1.041,-0.1455
1042,1.042,-0.153
1043,1.043,-0.148
1044,1.044,-0.1655
1045,1.045,-0.1615
1046,1.046,-0.152
1047,1.047,-0.166
1048,1.048,-0.1535
1049,1.049,-0.131
1050,1.05,-0.153
1051,1.051,-0.1735
1052,1.052,-0.1665
1053,1.053,-0.155
1054,1.054,-0.1585
1055,1.055,-0.174
1056,1.056,-0.176
1057,1.057,-0.1615
1058,1.058,-0.1655
1059,1.059,-0.1745
1060,1.06,-0.1745
1061,1.061,-0.1725
1062,1.062,-0.1715
1063,1.063,-0.175
1064,1.064,-0.1485
1065,1.065,-0.143
1066,1.066,-0.158
1067,1.067,-0.161
1068,1.068,-0.169
1069,1.069,-0.172
1070,1.07,-0.1745
1071,1.071,-0.1725
1072,1.072,-0.178
1073,1.073,-0.182
1074,1.074,-0.1815
1075,1.075,-0.1845
1076,1.076,-0.185
1077,1.077,-0.171
1078,1.078,-0.1645
1079,1.079,-0.175
1080,1.08,-0.175
1081,1.081,-0.1715
1082,1.082,-0.172
1083,1.083,-0.1795
1084,1.084,-0.1775
1085,1.085,-0.1675
1086,1.086,-0.1625
1087,1.087,-0.151
1088,1.088,-0.1545
1089,1.089,-0.169
1090,1.09,-0.154
1091,1.091,-0.1645
1092,1.092,-0.1895
1093,1.093,-0.189
1094,1.094,-0.1795
1095,1.095,-0.1695
1096,1.096,-0.191
1097,1.097,-0.183
1098,1.098,-0.182
1099,1.099,-0.185
1100,1.1,-0.1815
1101,1.101,-0.1955
1102,1.102,-0.1745
1103,1.103,-0.177
1104,1.104,-0.1955
1105,1.105,-0.197
1106,1.106,-0.1815
1107,1.107,-0.18
1108,1.108,-0.1925
1109,1.109,-0.185
1110,1.11,-0.1735
1111,1.111,-0.1585
1112,1.112,-0.1575
1113,1.113,-0.169
1114,1.114,-0.1785
1115,1.115,-0.191
1116,1.116,-0.194
1117,1.117,-0.181
1118,1.118,-0.192
1119,1.119,-0.1925
1120,1.12,-0.189
1121,1.121,-0.1835
1122,1.122,-0.178
1123,1.123,-0.1865
1124,1.124,-0.1665
1125,1.125,-0.1465
1126,1.1260000000000001,-0.151
1127,1.127,-0.1705
1128,1.1280000000000001,-0.1775
1129,1.129,-0.1775
1130,1.1300000000000001,-0.1845
1131,1.131,-0.166
1132,1.1320000000000001,-0.149
1133,1.133,-0.169
1134,1.1340000000000001,-0.185
1135,1.135,-0.1855
1136,1.1360000000000001,-0.1955
1137,1.137,-0.188
1138,1.1380000000000001,-0.1925
1139,1.139,-0.2015
1140,1.1400000000000001,-0.172
1141,1.141,-0.1615
1142,1.1420000000000001,-0.1675
1143,1.143,-0.1715
1144,1.1440000000000001,-0.1705
1145,1.145,-0.16
1146,1.1460000000000001,-0.1725
1147,1.147,-0.193
1148,1.1480000000000001,-0.19
1149,1.149,-0.1895
1150,1.1500000000000001,-0.1825
1151,1.151,-0.174
1152,1.1520000000000001,-0.171
1153,1.153,-0.1755
1154,1.154,-0.187
1155,1.155,-0.173
1156,1.156,-0.175
1157,1.157,-0.176
1158,1.158,-0.179
1159,1.159,-0.1945
1160,1.16,-0.184
1161,1.161,-0.174
1162,1.162,-0.168
1163,1.163,-0.1685
1164,1.164,-0.163
1165,1.165,-0.182
1166,1.166,-0.187
1167,1.167,-0.1665
1168,1.168,-0.1745
1169,1.169,-0.1845
1170,1.17,-0.181
1171,1.171,-0.1635
1172,1.172,-0.1815
1173,1.173,-0.186
1174,1.174,-0.177
1175,1.175,-0.1775
1176,1.176,-0.173
1177,1.177,-0.163
1178,1.178,-0.1665
1179,1.179,-0.1805
1180,1.18,-0.179
1181,1.181,-0.169
1182,1.182,-0.1565
1183,1.183,-0.181
1184,1.184,-0.196
1185,1.185,-0.189
1186,1.186,-0.179
1187,1.187,-0.178
1188,1.188,-0.1565
1189,1.189,-0.1615
1190,1.19,-0.1915
1191,1.191,-0.1865
1192,1.192,-0.201
1193,1.193,-0.1815
1194,1.194,-0.1695
1195,1.195,-0.1825
1196,1.196,-0.181
1197,1.197,-0.178
1198,1.198,-0.1655
1199,1.199,-0.1605
1200,1.2,-0.1645
1201,1.201,-0.165
1202,1.202,-0.1635
1203,1.203,-0.155
1204,1.204,-0.14
1205,1.205,-0.152
1206,1.206,-0.151
1207,1.207,-0.1495
1208,1.208,-0.159
1209,1.209,-0.1565
1210,1.21,-0.18
1211,1.211,-0.1695
1212,1.212,-0.1505
1213,1.213,-0.178
1214,1.214,-0.186
1215,1.215,-0.174
1216,1.216,-0.162
1217,1.217,-0.1565
1218,1.218,-0.1475
1219,1.219,-0.16
1220,1.22,-0.179
1221,1.221,-0.1665
1222,1.222,-0.154
1223,1.223,-0.1515
1224,1.224,-0.1505
1225,1.225,-0.144
1226,1.226,-0.137
1227,1.227,-0.1405
1228,1.228,-0.1325
1229,1.229,-0.1255
1230,1.23,-0.146
1231,1.231,-0.1425
1232,1.232,-0.1285
1233,1.233,-0.129
1234,1.234,-0.1255
1235,1.235,-0.1245
1236,1.236,-0.127
1237,1.237,-0.122
1238,1.238,-0.1105
1239,1.239,-0.1315
1240,1.24,-0.1535
1241,1.241,-0.127
1242,1.242,-0.111
1243,1.243,-0.1255
1244,1.244,-0.1325
1245,1.245,-0.1325
1246,1.246,-0.1305
1247,1.247,-0.1105
1248,1.248,-0.108
1249,1.249,-0.1305
1250,1.25,-0.138
1251,1.2510000000000001,-0.141
1252,1.252,-0.1305
1253,1.2530000000000001,-0.1305
1254,1.254,-0.1385
1255,1.2550000000000001,-0.1265
1256,1.256,-0.11
1257,1.2570000000000001,-0.1045
1258,1.258,-0.116
1259,1.2590000000000001,-0.1145
1260,1.26,-0.111
1261,1.2610000000000001,-0.1055
1262,1.262,-0.1085
1263,1.2630000000000001,-0.1115
1264,1.264,-0.092
1265,1.2650000000000001,-0.1005
1266,1.266,-0.1075
1267,1.2670000000000001,-0.1105
1268,1.268,-0.1345
1269,1.2690000000000001,-0.129
1270,1.27,-0.1175
1271,1.2710000000000001,-0.149
1272,1.272,-0.171
1273,1.2730000000000001,-0.1655
1274,1.274,-0.174
1275,1.2750000000000001,-0.1845
1276,1.276,-0.184
1277,1.2770000000000001,-0.1855
1278,1.278,-0.1925
1279,1.2790000000000001,-0.1915
1280,1.28,-0.192
1281,1.281,-0.191
1282,1.282,-0.177
1283,1.283,-0.178
1284,1.284,-0.168
1285,1.285,-0.1545
1286,1.286,-0.1745
1287,1.287,-0.2005
1288,1.288,-0.201
1289,1.289,-0.196
1290,1.29,-0.202
1291,1.291,-0.207
1292,1.292,-0.211
1293,1.293,-0.215
1294,1.294,-0.216
1295,1.295,-0.2115
1296,1.296,-0.2205
1297,1.297,-0.2075
1298,1.298,-0.1965
1299,1.299,-0.2095
1300,1.3,-0.2055
1301,1.301,-0.2075
1302,1.302,-0.203
1303,1.303,-0.2115
1304,1.304,-0.2315
1305,1.305,-0.198
1306,1.306,-0.1765
1307,1.307,-0.1875
1308,1.308,-0.1965
1309,1.309,-0.2115
1310,1.31,-0.245
1311,1.311,-0.2405
1312,1.312,-0.1745
1313,1.313,-0.167
1314,1.314,-0.201
1315,1.315,-0.1955
1316,1.316,-0.197
1317,1.317,-0.209
1318,1.318,-0.202
1319,1.319,-0.1985
1320,1.32,-0.1945
1321,1.321,-0.1935
1322,1.322,-0.1965
1323,1.323,-0.1935
1324,1.324,-0.191
1325,1.325,-0.1795
1326,1.326,-0.1785
1327,1.327,-0.167
1328,1.328,-0.166
1329,1.329,-0.179
1330,1.33,-0.1715
1331,1.331,-0.199
1332,1.332,-0.2225
1333,1.333,-0.209
1334,1.334,-0.191
1335,1.335,-0.1905
1336,1.336,-0.2
1337,1.337,-0.1995
1338,1.338,-0.195
1339,1.339,-0.197
1340,1.34,-0.2105
1341,1.341,-0.2125
1342,1.342,-0.2115
1343,1.343,-0.2175
1344,1.344,-0.228
1345,1.345,-0.2325
1346,1.346,-0.238
1347,1.347,-0.2605
1348,1.348,-0.2715
1349,1.349,-0.2875
1350,1.35,-0.3075
1351,1.351,-0.3215
1352,1.352,-0.344
1353,1.353,-0.367
1354,1.354,-0.378
1355,1.355,-0.384
1356,1.356,-0.397
1357,1.357,-0.3895
1358,1.358,-0.3775
1359,1.359,-0.377
1360,1.36,-0.3655
1361,1.361,-0.347
1362,1.362,-0.324
1363,1.363,-0.305
1364,1.364,-0.282
1365,1.365,-0.249
1366,1.366,-0.2175
1367,1.367,-0.1825
1368,1.368,-0.147
1369,1.369,-0.122
1370,1.37,-0.094
1371,1.371,-0.0575
1372,1.372,-0.018
1373,1.373,0.0325
1374,1.374,0.087
1375,1.375,0.1325
1376,1.3760000000000001,0.182
1377,1.377,0.229
1378,1.3780000000000001,0.2665
1379,1.379,0.3005
1380,1.3800000000000001,0.2835
1381,1.381,0.274
1382,1.3820000000000001,0.3025
1383,1.383,0.3165
1384,1.3840000000000001,0.338
1385,1.385,0.362
1386,1.3860000000000001,0.354
1387,1.387,0.3345
1388,1.3880000000000001,0.327
1389,1.389,0.2715
1390,1.3900000000000001,0.213
1391,1.391,0.202
1392,1.3920000000000001,0.1945
1393,1.393,0.162
1394,1.3940000000000001,0.1195
1395,1.395,0.104
1396,1.3960000000000001,0.1135
1397,1.397,0.1525
1398,1.3980000000000001,0.163
1399,1.399,0.1435
1400,1.4000000000000001,0.13
1401,1.401,0.121
1402,1.4020000000000001,0.1095
1403,1.403,0.095
1404,1.4040000000000001,0.0955
1405,1.405,0.0735
1406,1.4060000000000001,0.0365
1407,1.407,0.014
1408,1.408,0.0015
1409,1.409,-0.019
1410,1.41,-0.0375
1411,1.411,-0.055
1412,1.412,-0.0735
1413,1.413,-0.1025
1414,1.414,-0.131
1415,1.415,-0.1455
1416,1.416,-0.1755
1417,1.417,-0.2115
1418,1.418,-0.232
1419,1.419,-0.2355
1420,1.42,-0.271
1421,1.421,-0.313
1422,1.422,-0.3375
1423,1.423,-0.3315
1424,1.424,-0.3325
1425,1.425,-0.353
1426,1.426,-0.3615
1427,1.427,-0.4245
1428,1.428,-0.4855
1429,1.429,-0.5
1430,1.43,-0.492
1431,1.431,-0.5075
1432,1.432,-0.517
1433,1.433,-0.544
1434,1.434,-0.5765
1435,1.435,-0.557
1436,1.436,-0.5695
1437,1.437,-0.5925
1438,1.438,-0.609
1439,1.439,-0.608
1440,1.44,-0.6065
1441,1.441,-0.6095
1442,1.442,-0.6185
1443,1.443,-0.6255
1444,1.444,-0.6125
1445,1.445,-0.6165
1446,1.446,-0.6015
1447,1.447,-0.6045
1448,1.448,-0.6125
1449,1.449,-0.588
1450,1.45,-0.5765
1451,1.451,-0.5595
1452,1.452,-0.5415
1453,1.453,-0.523
1454,1.454,-0.5
1455,1.455,-0.4815
1456,1.456,-0.4585
1457,1.457,-0.432
1458,1.458,-0.418
1459,1.459,-0.406
1460,1.46,-0.3815
1461,1.461,-0.358
1462,1.462,-0.337
1463,1.463,-0.321
1464,1.464,-0.308
1465,1.465,-0.3005
1466,1.466,-0.2855
1467,1.467,-0.2705
1468,1.468,-0.263
1469,1.469,-0.246
1470,1.47,-0.241
1471,1.471,-0.2425
1472,1.472,-0.2425
1473,1.473,-0.2385
1474,1.474,-0.2415
1475,1.475,-0.244
1476,1.476,-0.2255
1477,1.477,-0.2375
1478,1.478,-0.2425
1479,1.479,-0.232
1480,1.48,-0.2305
1481,1.481,-0.227
1482,1.482,-0.201
1483,1.483,-0.1805
1484,1.484,-0.202
1485,1.485,-0.208
1486,1.486,-0.229
1487,1.487,-0.229
1488,1.488,-0.191
1489,1.489,-0.2045
1490,1.49,-0.2155
1491,1.491,-0.218
1492,1.492,-0.22
1493,1.493,-0.2015
1494,1.494,-0.2065
1495,1.495,-0.2035
1496,1.496,-0.203
1497,1.497,-0.2185
1498,1.498,-0.2195
1499,1.499,-0.212
1500,1.5,-0.2165
1501,1.5010000000000001,-0.235
1502,1.502,-0.222
1503,1.5030000000000001,-0.1995
1504,1.504,-0.1985
1505,1.5050000000000001,-0.206
1506,1.506,-0.21
1507,1.5070000000000001,-0.213
1508,1.508,-0.2105
1509,1.5090000000000001,-0.2025
1510,1.51,-0.207
1511,1.5110000000000001,-0.2165
1512,1.512,-0.2225
1513,1.5130000000000001,-0.2235
1514,1.514,-0.22
1515,1.5150000000000001,-0.2285
1516,1.516,-0.2225
1517,1.5170000000000001,-0.2115
1518,1.518,-0.218
1519,1.5190000000000001,-0.2265
1520,1.52,-0.23
1521,1.5210000000000001,-0.22
1522,1.522,-0.2065
1523,1.5230000000000001,-0.1835
1524,1.524,-0.1935
1525,1.5250000000000001,-0.2065
1526,1.526,-0.216
1527,1.5270000000000001,-0.2215
1528,1.528,-0.1955
1529,1.5290000000000001,-0.2115
1530,1.53,-0.2105
1531,1.5310000000000001,-0.2065
1532,1.532,-0.2095
1533,1.5330000000000001,-0.1885
1534,1.534,-0.201
1535,1.5350000000000001,-0.2195
1536,1.536,-0.214
1537,1.537,-0.216
1538,1.538,-0.2235
1539,1.539,-0.212
1540,1.54,-0.21
1541,1.541,-0.217
1542,1.542,-0.224
1543,1.543,-0.1995
1544,1.544,-0.172
1545,1.545,-0.1815
1546,1.546,-0.1935
1547,1.547,-0.2005
1548,1.548,-0.2
1549,1.549,-0.199
1550,1.55,-0.197
1551,1.551,-0.197
1552,1.552,-0.1985
1553,1.553,-0.199
1554,1.554,-0.206
1555,1.555,-0.222
1556,1.556,-0.2135
1557,1.557,-0.2015
1558,1.558,-0.204
1559,1.559,-0.1965
1560,1.56,-0.197
1561,1.561,-0.1985
1562,1.562,-0.1935
1563,1.563,-0.189
1564,1.564,-0.191
1565,1.565,-0.1875
1566,1.566,-0.1855
1567,1.567,-0.1845
1568,1.568,-0.179
1569,1.569,-0.182
1570,1.57,-0.1875
1571,1.571,-0.189
1572,1.572,-0.1855
1573,1.573,-0.186
1574,1.574,-0.1925
1575,1.575,-0.1955
1576,1.576,-0.1905
1577,1.577,-0.193
1578,1.578,-0.184
1579,1.579,-0.1695
1580,1.58,-0.18
1581,1.581,-0.195
1582,1.582,-0.1625
1583,1.583,-0.143
1584,1.584,-0.1725
1585,1.585,-0.173
1586,1.586,-0.164
1587,1.587,-0.146
1588,1.588,-0.167
1589,1.589,-0.1695
1590,1.59,-0.147
1591,1.591,-0.1615
1592,1.592,-0.145
1593,1.593,-0.1375
1594,1.594,-0.132
1595,1.595,-0.132
1596,1.596,-0.118
1597,1.597,-0.1175
1598,1.598,-0.1535
1599,1.599,-0.134
1600,1.6,-0.115
1601,1.601,-0.1015
1602,1.602,-0.0955
1603,1.603,-0.1275
1604,1.604,-0.136
1605,1.605,-0.1185
1606,1.606,-0.112
1607,1.607,-0.109
1608,1.608,-0.107
1609,1.609,-0.113
1610,1.61,-0.102
1611,1.611,-0.0985
1612,1.612,-0.103
1613,1.613,-0.0935
1614,1.614,-0.0985
1615,1.615,-0.1
1616,1.616,-0.097
1617,1.617,-0.094
1618,1.618,-0.0845
1619,1.619,-0.085
1620,1.62,-0.07
1621,1.621,-0.06
1622,1.622,-0.0585
1623,1.623,-0.0575
1624,1.624,-0.0715
1625,1.625,-0.0875
1626,1.6260000000000001,-0.064
1627,1.627,-0.024
1628,1.6280000000000001,-0.0345
1629,1.629,-0.0365
1630,1.6300000000000001,-0.038
1631,1.631,-0.057
1632,1.6320000000000001,-0.059
1633,1.633,-0.0375
1634,1.6340000000000001,-0.0335
1635,1.635,-0.03
1636,1.6360000000000001,-0.034
1637,1.637,-0.053
1638,1.6380000000000001,-0.021
1639,1.639,-0.0275
1640,1.6400000000000001,-0.045
1641,1.641,-0.031
1642,1.6420000000000001,-0.0215
1643,1.643,-0.0085
1644,1.6440000000000001,-0.0165
1645,1.645,-0.0365
1646,1.6460000000000001,-0.0435
1647,1.647,-0.033
1648,1.6480000000000001,-0.008
1649,1.649,0.016
1650,1.6500000000000001,0.0025
1651,1.651,-0.0155
1652,1.6520000000000001,-0.004
1653,1.653,0.005
1654,1.6540000000000001,-0.0025
1655,1.655,-0.014
1656,1.6560000000000001,-0.011
1657,1.657,-0.002
1658,1.6580000000000001,0.005
1659,1.659,0.01
1660,1.6600000000000001,0.0095
1661,1.661,0.0145
1662,1.6620000000000001,0.0195
1663,1.663,0.023
1664,1.6640000000000001,0.012
1665,1.665,0.0175
1666,1.666,0.0165
1667,1.667,0.0185
1668,1.668,0.0365
1669,1.669,0.026
1670,1.67,0.026
1671,1.671,0.02
1672,1.672,0.014
1673,1.673,0.0125
1674,1.674,0.005
1675,1.675,0.004
1676,1.676,-0.004
1677,1.677,-0.001
1678,1.678,0.0065
1679,1.679,0.0115
1680,1.68,0.0065
1681,1.681,-0.005
1682,1.682,0.0025
1683,1.683,0.0165
1684,1.684,0.022
1685,1.685,0.016
1686,1.686,0.0025
1687,1.687,0.0075
1688,1.688,0.0125
1689,1.689,0.003
1690,1.69,-0.007
1691,1.691,-0.015
1692,1.692,-0.011
1693,1.693,-0.0075
1694,1.694,-0.013
1695,1.695,-0.0235
1696,1.696,-0.026
1697,1.697,-0.039
1698,1.698,-0.0405
1699,1.699,-0.0205
1700,1.7,-0.0205
1701,1.701,-0.001
1702,1.702,0.0075
1703,1.703,-0.0235
1704,1.704,-0.025
1705,1.705,-0.0085
1706,1.706,-0.013
1707,1.707,-0.0425
1708,1.708,-0.043
1709,1.709,-0.018
1710,1.71,-0.0295
1711,1.711,-0.045
1712,1.712,-0.054
1713,1.713,-0.06
1714,1.714,-0.0625
1715,1.715,-0.0435
1716,1.716,-0.037
1717,1.717,-0.0645
1718,1.718,-0.0695
1719,1.719,-0.047
1720,1.72,-0.041
1721,1.721,-0.0625
1722,1.722,-0.0495
1723,1.723,-0.0545
1724,1.724,-0.0675
1725,1.725,-0.043
1726,1.726,-0.0525
1727,1.727,-0.056
1728,1.728,-0.0525
1729,1.729,-0.065
1730,1.73,-0.0665
1731,1.731,-0.0665
1732,1.732,-0.0685
1733,1.733,-0.0685
1734,1.734,-0.0695
1735,1.735,-0.076
1736,1.736,-0.0815
1737,1.737,-0.0865
1738,1.738,-0.0795
1739,1.739,-0.0705
1740,1.74,-0.077
1741,1.741,-0.0805
1742,1.742,-0.081
1743,1.743,-0.0775
1744,1.744,-0.0765
1745,1.745,-0.086
1746,1.746,-0.0945
1747,1.747,-0.0925
1748,1.748,-0.095
1749,1.749,-0.108
1750,1.75,-0.117
1751,1.7510000000000001,-0.13
1752,1.752,-0.1215
1753,1.7530000000000001,-0.123
1754,1.754,-0.1445
1755,1.7550000000000001,-0.136
1756,1.756,-0.121
1757,1.7570000000000001,-0.1265
1758,1.758,-0.1345
1759,1.7590000000000001,-0.1085
1760,1.76,-0.1025
1761,1.7610000000000001,-0.0925
1762,1.762,-0.086
1763,1.7630000000000001,-0.114
1764,1.764,-0.118
1765,1.7650000000000001,-0.1205
1766,1.766,-0.116
1767,1.7670000000000001,-0.122
1768,1.768,-0.118
1769,1.7690000000000001,-0.1195
1770,1.77,-0.1175
1771,1.7710000000000001,-0.1135
1772,1.772,-0.131
1773,1.7730000000000001,-0.114
1774,1.774,-0.107
1775,1.7750000000000001,-0.1155
1776,1.776,-0.132
1777,1.7770000000000001,-0.1505
1778,1.778,-0.1225
1779,1.7790000000000001,-0.099
1780,1.78,-0.11
1781,1.7810000000000001,-0.116
1782,1.782,-0.113
1783,1.7830000000000001,-0.1035
1784,1.784,-0.103
1785,1.7850000000000001,-0.109
1786,1.786,-0.119
1787,1.7870000000000001,-0.108
1788,1.788,-0.092
1789,1.7890000000000001,-0.1255
1790,1.79,-0.1395
1791,1.7910000000000001,-0.1355
1792,1.792,-0.1405
1793,1.793,-0.15
1794,1.794,-0.1635
1795,1.795,-0.1465
1796,1.796,-0.129
1797,1.797,-0.1265
1798,1.798,-0.128
1799,1.799,-0.1335
1800,1.8,-0.133
1801,1.801,-0.123
1802,1.802,-0.1115
1803,1.803,-0.1145
1804,1.804,-0.127
1805,1.805,-0.12
1806,1.806,-0.1075
1807,1.807,-0.118
1808,1.808,-0.127
1809,1.809,-0.133
1810,1.81,-0.1295
1811,1.811,-0.12
1812,1.812,-0.1315
1813,1.813,-0.129
1814,1.814,-0.12
1815,1.815,-0.121
1816,1.816,-0.1135
1817,1.817,-0.1175
1818,1.818,-0.1325
1819,1.819,-0.135
1820,1.82,-0.137
1821,1.821,-0.146
1822,1.822,-0.114
1823,1.823,-0.0985
1824,1.824,-0.128
1825,1.825,-0.109
1826,1.826,-0.082
1827,1.827,-0.078
1828,1.828,-0.0965
1829,1.829,-0.1125
1830,1.83,-0.1
1831,1.831,-0.1055
1832,1.832,-0.1105
1833,1.833,-0.115
1834,1.834,-0.123
1835,1.835,-0.1255
1836,1.836,-0.1275
1837,1.837,-0.1245
1838,1.838,-0.1295
1839,1.839,-0.115
1840,1.84,-0.1045
1841,1.841,-0.111
1842,1.842,-0.0965
1843,1.843,-0.0915
1844,1.844,-0.097
1845,1.845,-0.091
1846,1.846,-0.0995
1847,1.847,-0.099
1848,1.848,-0.0835
1849,1.849,-0.088
1850,1.85,-0.103
1851,1.851,-0.1065
1852,1.852,-0.112
1853,1.853,-0.107
1854,1.854,-0.1095
1855,1.855,-0.102
1856,1.856,-0.091
1857,1.857,-0.1245
1858,1.858,-0.118
1859,1.859,-0.106
1860,1.86,-0.1045
1861,1.861,-0.0875
1862,1.862,-0.0855
1863,1.863,-0.0885
1864,1.864,-0.0995
1865,1.865,-0.094
1866,1.866,-0.1
1867,1.867,-0.1035
1868,1.868,-0.0935
1869,1.869,-0.1005
1870,1.87,-0.0875
1871,1.871,-0.1145
1872,1.872,-0.131
1873,1.873,-0.108
1874,1.874,-0.1085
1875,1.875,-0.104
1876,1.8760000000000001,-0.108
1877,1.877,-0.105
1878,1.8780000000000001,-0.1015
1879,1.879,-0.123
1880,1.8800000000000001,-0.142
1881,1.881,-0.128
1882,1.8820000000000001,-0.106
1883,1.883,-0.0995
1884,1.8840000000000001,-0.109
1885,1.885,-0.1135
1886,1.8860000000000001,-0.1075
1887,1.887,-0.098
1888,1.8880000000000001,-0.096
1889,1.889,-0.0985
1890,1.8900000000000001,-0.0965
1891,1.891,-0.106
1892,1.8920000000000001,-0.114
1893,1.893,-0.127
1894,1.8940000000000001,-0.142
1895,1.895,-0.125
1896,1.8960000000000001,-0.104
1897,1.897,-0.124
1898,1.8980000000000001,-0.1385
1899,1.899,-0.15
1900,1.9000000000000001,-0.151
1901,1.901,-0.126
1902,1.9020000000000001,-0.1095
1903,1.903,-0.1175
1904,1.9040000000000001,-0.123
1905,1.905,-0.1175
1906,1.9060000000000001,-0.1425
1907,1.907,-0.111
1908,1.9080000000000001,-0.0935
1909,1.909,-0.119
1910,1.9100000000000001,-0.103
1911,1.911,-0.102
1912,1.9120000000000001,-0.105
1913,1.913,-0.1145
1914,1.9140000000000001,-0.1245
1915,1.915,-0.1365
1916,1.9160000000000001,-0.126
1917,1.917,-0.107
1918,1.9180000000000001,-0.111
1919,1.919,-0.115
1920,1.92,-0.114
1921,1.921,-0.1025
1922,1.922,-0.1035
1923,1.923,-0.113
1924,1.924,-0.109
1925,1.925,-0.103
1926,1.926,-0.1245
1927,1.927,-0.125
1928,1.928,-0.1175
1929,1.929,-0.1295
1930,1.93,-0.1215
1931,1.931,-0.1125
1932,1.932,-0.103
1933,1.933,-0.0985
1934,1.934,-0.124
1935,1.935,-0.1255
1936,1.936,-0.1225
1937,1.937,-0.1355
1938,1.938,-0.101
1939,1.939,-0.107
1940,1.94,-0.1275
1941,1.941,-0.133
1942,1.942,-0.1395
1943,1.943,-0.129
1944,1.944,-0.1305
1945,1.945,-0.1055
1946,1.946,-0.084
1947,1.947,-0.098
1948,1.948,-0.0975
1949,1.949,-0.0815
1950,1.95,-0.088
1951,1.951,-0.086
1952,1.952,-0.092
1953,1.953,-0.1
1954,1.954,-0.091
1955,1.955,-0.0925
1956,1.956,-0.091
1957,1.957,-0.0925
1958,1.958,-0.0845
1959,1.959,-0.0685
1960,1.96,-0.0535
1961,1.961,-0.044
1962,1.962,-0.038
1963,1.963,-0.037
1964,1.964,-0.039
1965,1.965,-0.0335
1966,1.966,-0.034
1967,1.967,-0.0395
1968,1.968,-0.04
1969,1.969,-0.0395
1970,1.97,-0.0485
1971,1.971,-0.0575
1972,1.972,-0.055
1973,1.973,-0.053
1974,1.974,-0.0475
1975,1.975,-0.03
1976,1.976,-0.0595
1977,1.977,-0.0835
1978,1.978,-0.066
1979,1.979,-0.0885
1980,1.98,-0.0955
1981,1.981,-0.0775
1982,1.982,-0.0575
1983,1.983,-0.031
1984,1.984,-0.019
1985,1.985,-0.0295
1986,1.986,-0.0175
1987,1.987,-0.0075
1988,1.988,-0.042
1989,1.989,-0.041
1990,1.99,-0.0455
1991,1.991,-0.04
1992,1.992,-0.0385
1993,1.993,-0.0655
1994,1.994,-0.0595
1995,1.995,-0.091
1996,1.996,-0.0885
1997,1.997,-0.0675
1998,1.998,-0.0815
1999,1.999,-0.0735
2000,2.0,-0.0805
2001,2.001,-0.093
2002,2.0020000000000002,-0.1025
2003,2.003,-0.087
2004,2.004,-0.082
2005,2.005,-0.088
2006,2.0060000000000002,-0.088
2007,2.007,-0.09
2008,2.008,-0.1005
2009,2.009,-0.1115
2010,2.0100000000000002,-0.087
2011,2.011,-0.086
2012,2.012,-0.104
2013,2.013,-0.119
2014,2.0140000000000002,-0.106
2015,2.015,-0.1005
2016,2.016,-0.1165
2017,2.017,-0.1165
2018,2.0180000000000002,-0.116
2019,2.019,-0.1205
2020,2.02,-0.1225
2021,2.021,-0.113
2022,2.0220000000000002,-0.1205
2023,2.023,-0.1205
2024,2.024,-0.0965
2025,2.025,-0.084
2026,2.0260000000000002,-0.089
2027,2.027,-0.0965
2028,2.028,-0.112
2029,2.029,-0.122
2030,2.0300000000000002,-0.134
2031,2.031,-0.1345
2032,2.032,-0.131
2033,2.033,-0.124
2034,2.0340000000000003,-0.103
2035,2.035,-0.107
2036,2.036,-0.096
2037,2.037,-0.094
2038,2.0380000000000003,-0.1205
2039,2.039,-0.12
2040,2.04,-0.114
2041,2.041,-0.1225
2042,2.0420000000000003,-0.1145
2043,2.043,-0.105
2044,2.044,-0.1055
2045,2.045,-0.1065
2046,2.0460000000000003,-0.1095
2047,2.047,-0.112
2048,2.048,-0.1245
2049,2.049,-0.1155
2050,2.05,-0.112
2051,2.051,-0.127
2052,2.052,-0.1215
2053,2.053,-0.1245
2054,2.054,-0.128
2055,2.055,-0.12
2056,2.056,-0.131
2057,2.057,-0.134
2058,2.058,-0.1145
2059,2.059,-0.117
2060,2.06,-0.1045
2061,2.061,-0.103
2062,2.062,-0.116
2063,2.063,-0.105
2064,2.064,-0.1085
2065,2.065,-0.106
2066,2.066,-0.097
2067,2.067,-0.0895
2068,2.068,-0.0985
2069,2.069,-0.0975
2070,2.07,-0.1135
2071,2.071,-0.168
2072,2.072,-0.159
2073,2.073,-0.159
2074,2.074,-0.1815
2075,2.075,-0.181
2076,2.076,-0.2195
2077,2.077,-0.2395
2078,2.078,-0.231
2079,2.079,-0.244
2080,2.08,-0.261
2081,2.081,-0.263
2082,2.082,-0.277
2083,2.083,-0.2885
2084,2.084,-0.2895
2085,2.085,-0.283
2086,2.086,-0.258
2087,2.087,-0.2575
2088,2.088,-0.276
2089,2.089,-0.2655
2090,2.09,-0.2455
2091,2.091,-0.226
2092,2.092,-0.2025
2093,2.093,-0.178
2094,2.094,-0.149
2095,2.095,-0.1195
2096,2.096,-0.0855
2097,2.097,-0.081
2098,2.098,-0.036
2099,2.099,0.041
2100,2.1,0.091
2101,2.101,0.14
2102,2.102,0.1865
2103,2.103,0.234
2104,2.104,0.2675
2105,2.105,0.2975
2106,2.106,0.3285
2107,2.107,0.3515
2108,2.108,0.3575
2109,2.109,0.3625
2110,2.11,0.368
2111,2.111,0.36
2112,2.112,0.367
2113,2.113,0.3975
2114,2.114,0.3945
2115,2.115,0.3855
2116,2.116,0.3625
2117,2.117,0.3075
2118,2.118,0.271
2119,2.119,0.242
2120,2.12,0.216
2121,2.121,0.1845
2122,2.122,0.191
2123,2.123,0.214
2124,2.124,0.2025
2125,2.125,0.208
2126,2.126,0.222
2127,2.1270000000000002,0.188
2128,2.128,0.1405
2129,2.129,0.1275
2130,2.13,0.113
2131,2.1310000000000002,0.0985
2132,2.132,0.089
2133,2.133,0.076
2134,2.134,0.055
2135,2.1350000000000002,-0.0005
2136,2.136,-0.006
2137,2.137,-0.0105
2138,2.138,-0.0375
2139,2.1390000000000002,-0.0475
2140,2.14,-0.0685
2141,2.141,-0.07
2142,2.142,-0.084
2143,2.1430000000000002,-0.094
2144,2.144,-0.11
2145,2.145,-0.1635
2146,2.146,-0.211
2147,2.1470000000000002,-0.2175
2148,2.148,-0.2305
2149,2.149,-0.2525
2150,2.15,-0.272
2151,2.1510000000000002,-0.3035
2152,2.152,-0.327
2153,2.153,-0.347
2154,2.154,-0.365
2155,2.1550000000000002,-0.3905
2156,2.156,-0.404
2157,2.157,-0.4235
2158,2.158,-0.4265
2159,2.1590000000000003,-0.427
2160,2.16,-0.445
2161,2.161,-0.4555
2162,2.162,-0.472
2163,2.1630000000000003,-0.4815
2164,2.164,-0.485
2165,2.165,-0.49
2166,2.166,-0.5015
2167,2.1670000000000003,-0.4985
2168,2.168,-0.506
2169,2.169,-0.5265
2170,2.17,-0.54
2171,2.1710000000000003,-0.549
2172,2.172,-0.559
2173,2.173,-0.5495
2174,2.174,-0.5335
2175,2.1750000000000003,-0.5455
2176,2.176,-0.5415
2177,2.177,-0.535
2178,2.178,-0.5095
2179,2.179,-0.4815
2180,2.18,-0.466
2181,2.181,-0.4465
2182,2.182,-0.449
2183,2.183,-0.4385
2184,2.184,-0.4255
2185,2.185,-0.3885
2186,2.186,-0.3435
2187,2.187,-0.34
2188,2.188,-0.3395
2189,2.189,-0.3125
2190,2.19,-0.2965
2191,2.191,-0.311
2192,2.192,-0.292
2193,2.193,-0.271
2194,2.194,-0.269
2195,2.195,-0.2475
2196,2.196,-0.2405
2197,2.197,-0.2235
2198,2.198,-0.206
2199,2.199,-0.2145
2200,2.2,-0.1945
2201,2.201,-0.1825
2202,2.202,-0.1805
2203,2.203,-0.1865
2204,2.204,-0.2015
2205,2.205,-0.1785
2206,2.206,-0.159
2207,2.207,-0.157
2208,2.208,-0.1575
2209,2.209,-0.1655
2210,2.21,-0.1695
2211,2.211,-0.1805
2212,2.212,-0.179
2213,2.213,-0.159
2214,2.214,-0.1615
2215,2.215,-0.173
2216,2.216,-0.1685
2217,2.217,-0.157
2218,2.218,-0.1485
2219,2.219,-0.1595
2220,2.22,-0.16
2221,2.221,-0.1485
2222,2.222,-0.1425
2223,2.223,-0.135
2224,2.224,-0.1545
2225,2.225,-0.179
2226,2.226,-0.1645
2227,2.227,-0.1485
2228,2.228,-0.152
2229,2.229,-0.1495
2230,2.23,-0.145
2231,2.231,-0.1535
2232,2.232,-0.1615
2233,2.233,-0.146
2234,2.234,-0.162
2235,2.235,-0.1865
2236,2.236,-0.1775
2237,2.237,-0.165
2238,2.238,-0.16
2239,2.239,-0.16
2240,2.24,-0.163
2241,2.241,-0.151
2242,2.242,-0.1415
2243,2.243,-0.145
2244,2.244,-0.1325
2245,2.245,-0.1695
2246,2.246,-0.1725
2247,2.247,-0.1435
2248,2.248,-0.145
2249,2.249,-0.1295
2250,2.25,-0.144
2251,2.251,-0.1545
2252,2.2520000000000002,-0.149
2253,2.253,-0.156
2254,2.254,-0.1675
2255,2.255,-0.1665
2256,2.2560000000000002,-0.162
2257,2.257,-0.1575
2258,2.258,-0.145
2259,2.259,-0.15
2260,2.2600000000000002,-0.1515
2261,2.261,-0.1465
2262,2.262,-0.1455
2263,2.263,-0.136
2264,2.2640000000000002,-0.1235
2265,2.265,-0.13
2266,2.266,-0.132
2267,2.267,-0.136
2268,2.2680000000000002,-0.156
2269,2.269,-0.16
2270,2.27,-0.171
2271,2.271,-0.1545
2272,2.2720000000000002,-0.139
2273,2.273,-0.142
2274,2.274,-0.1365
2275,2.275,-0.1405
2276,2.2760000000000002,-0.1225
2277,2.277,-0.119
2278,2.278,-0.1165
2279,2.279,-0.1055
2280,2.2800000000000002,-0.1225
2281,2.281,-0.1475
2282,2.282,-0.1425
2283,2.283,-0.1165
2284,2.2840000000000003,-0.121
2285,2.285,-0.112
2286,2.286,-0.103
2287,2.287,-0.1285
2288,2.2880000000000003,-0.1435
2289,2.289,-0.1375
2290,2.29,-0.119
2291,2.291,-0.104
2292,2.2920000000000003,-0.107
2293,2.293,-0.13
2294,2.294,-0.161
2295,2.295,-0.1435
2296,2.2960000000000003,-0.1245
2297,2.297,-0.133
2298,2.298,-0.13
2299,2.299,-0.1455
2300,2.3000000000000003,-0.136
2301,2.301,-0.108
2302,2.302,-0.0895
2303,2.303,-0.0975
2304,2.3040000000000003,-0.1075
2305,2.305,-0.1015
2306,2.306,-0.091
2307,2.307,-0.079
2308,2.308,-0.1095
2309,2.309,-0.117
2310,2.31,-0.116
2311,2.311,-0.116
2312,2.312,-0.109
2313,2.313,-0.114
2314,2.314,-0.1035
2315,2.315,-0.102
2316,2.316,-0.1095
2317,2.317,-0.108
2318,2.318,-0.093
2319,2.319,-0.081
2320,2.32,-0.088
2321,2.321,-0.09
2322,2.322,-0.0735
2323,2.323,-0.0695
2324,2.324,-0.0675
2325,2.325,-0.0775
2326,2.326,-0.0725
2327,2.327,-0.045
2328,2.328,-0.0535
2329,2.329,-0.065
2330,2.33,-0.0685
2331,2.331,-0.0615
2332,2.332,-0.051
2333,2.333,-0.0515
2334,2.334,-0.055
2335,2.335,-0.0535
2336,2.336,-0.0515
2337,2.337,-0.062
2338,2.338,-0.0525
2339,2.339,-0.039
2340,2.34,-0.041
2341,2.341,-0.031
2342,2.342,-0.0205
2343,2.343,-0.032
2344,2.344,-0.047
2345,2.345,-0.0255
2346,2.346,0.002
2347,2.347,0.017
2348,2.348,0.0085
2349,2.349,0.0025
2350,2.35,0.0135
2351,2.351,-0.02
2352,2.352,-0.03
2353,2.353,-0.0195
2354,2.354,-0.0265
2355,2.355,-0.0195
2356,2.356,0.0115
2357,2.357,0.027
2358,2.358,-0.0095
2359,2.359,-0.034
2360,2.36,-0.0165
2361,2.361,0.004
2362,2.362,0.014
2363,2.363,0.0265
2364,2.364,0.027
2365,2.365,0.0345
2366,2.366,0.0415
2367,2.367,0.04
2368,2.368,0.043
2369,2.369,0.0415
2370,2.37,0.0365
2371,2.371,0.032
2372,2.372,0.033
2373,2.373,0.022
2374,2.374,0.02
2375,2.375,0.0275
2376,2.376,0.022
2377,2.3770000000000002,0.047
2378,2.378,0.0625
2379,2.379,0.048
2380,2.38,0.0415
2381,2.3810000000000002,0.043
2382,2.382,0.0515
2383,2.383,0.0605
2384,2.384,0.0685
2385,2.3850000000000002,0.0545
2386,2.386,0.048
2387,2.387,0.054
2388,2.388,0.054
2389,2.3890000000000002,0.0525
2390,2.39,0.0425
2391,2.391,0.023
2392,2.392,0.0245
2393,2.3930000000000002,0.04
2394,2.394,0.0275
2395,2.395,0.039
2396,2.396,0.0595
2397,2.3970000000000002,0.068
2398,2.398,0.065
2399,2.399,0.0595
2400,2.4,0.0585
2401,2.4010000000000002,0.077
2402,2.402,0.083
2403,2.403,0.0315
2404,2.404,0.024
2405,2.4050000000000002,0.044
2406,2.406,0.053
2407,2.407,0.0535
2408,2.408,0.022
2409,2.4090000000000003,0.026
2410,2.41,0.0365
2411,2.411,0.019
2412,2.412,0.013
2413,2.4130000000000003,0.02
2414,2.414,0.0415
2415,2.415,0.036
2416,2.416,0.025
2417,2.4170000000000003,0.0175
2418,2.418,0.007
2419,2.419,0.013
2420,2.42,-0.0005
2421,2.4210000000000003,-0.0035
2422,2.422,0.0145
2423,2.423,0.0115
2424,2.424,0.005
2425,2.4250000000000003,0.0105
2426,2.426,0.0165
2427,2.427,0.028
2428,2.428,0.0155
2429,2.4290000000000003,0.005
2430,2.43,0.016
2431,2.431,0.004
2432,2.432,-0.006
2433,2.433,-0.013
2434,2.434,-0.0295
2435,2.435,-0.013
2436,2.436,-0.0065
2437,2.437,-0.015
2438,2.438,-0.0025
2439,2.439,-0.0115
2440,2.44,-0.007
2441,2.441,0.005
2442,2.442,0.0055
2443,2.443,-0.0055
2444,2.444,-0.0065
2445,2.445,0.0145
2446,2.446,-0.003
2447,2.447,-0.0125
2448,2.448,-0.0285
2449,2.449,-0.044
2450,2.45,-0.0215
2451,2.451,-0.0205
2452,2.452,-0.035
2453,2.453,-0.0435
2454,2.454,-0.043
2455,2.455,-0.0185
2456,2.456,-0.0185
2457,2.457,-0.0435
2458,2.458,-0.0515
2459,2.459,-0.052
2460,2.46,-0.0485
2461,2.461,-0.051
2462,2.462,-0.054
2463,2.463,-0.0495
2464,2.464,-0.0365
2465,2.465,-0.0415
2466,2.466,-0.0465
2467,2.467,-0.0575
2468,2.468,-0.0655
2469,2.469,-0.058
2470,2.47,-0.0635
2471,2.471,-0.053
2472,2.472,-0.058
2473,2.473,-0.073
2474,2.474,-0.073
2475,2.475,-0.0705
2476,2.476,-0.068
2477,2.477,-0.0685
2478,2.478,-0.0625
2479,2.479,-0.0575
2480,2.48,-0.0445
2481,2.481,-0.0555
2482,2.482,-0.0765
2483,2.483,-0.074
2484,2.484,-0.077
2485,2.485,-0.0645
2486,2.486,-0.0585
2487,2.487,-0.0815
2488,2.488,-0.1125
2489,2.489,-0.0905
2490,2.49,-0.067
2491,2.491,-0.096
2492,2.492,-0.096
2493,2.493,-0.0955
2494,2.494,-0.08
2495,2.495,-0.0685
2496,2.496,-0.0845
2497,2.497,-0.0815
2498,2.498,-0.0935
2499,2.499,-0.108
2500,2.5,-0.084
2501,2.501,-0.0775
2502,2.5020000000000002,-0.0835
2503,2.503,-0.089
2504,2.504,-0.093
2505,2.505,-0.089
2506,2.5060000000000002,-0.0695
2507,2.507,-0.0645
2508,2.508,-0.093
2509,2.509,-0.093
2510,2.5100000000000002,-0.103
2511,2.511,-0.0995
2512,2.512,-0.091
2513,2.513,-0.1025
2514,2.5140000000000002,-0.097
2515,2.515,-0.0895
2516,2.516,-0.0895
2517,2.517,-0.1
2518,2.5180000000000002,-0.097
2519,2.519,-0.091
2520,2.52,-0.0825
2521,2.521,-0.0725
2522,2.5220000000000002,-0.0755
2523,2.523,-0.078
2524,2.524,-0.084
2525,2.525,-0.09
2526,2.5260000000000002,-0.089
2527,2.527,-0.0815
2528,2.528,-0.096
2529,2.529,-0.099
2530,2.5300000000000002,-0.075
2531,2.531,-0.089
2532,2.532,-0.114
2533,2.533,-0.1135
2534,2.5340000000000003,-0.1025
2535,2.535,-0.0905
2536,2.536,-0.09
2537,2.537,-0.0855
2538,2.5380000000000003,-0.0955
2539,2.539,-0.104
2540,2.54,-0.079
2541,2.541,-0.0795
2542,2.5420000000000003,-0.072
2543,2.543,-0.0665
2544,2.544,-0.094
2545,2.545,-0.092
2546,2.5460000000000003,-0.0645
2547,2.547,-0.0615
2548,2.548,-0.07
2549,2.549,-0.0835
2550,2.5500000000000003,-0.096
2551,2.551,-0.082
2552,2.552,-0.093
2553,2.553,-0.0885
2554,2.5540000000000003,-0.0925
2555,2.555,-0.099
2556,2.556,-0.073
2557,2.557,-0.066
2558,2.5580000000000003,-0.0655
2559,2.559,-0.0795
2560,2.56,-0.072
2561,2.561,-0.0665
2562,2.562,-0.074
2563,2.563,-0.07
2564,2.564,-0.069
2565,2.565,-0.0725
2566,2.566,-0.075
2567,2.567,-0.072
2568,2.568,-0.0785
2569,2.569,-0.082
2570,2.57,-0.081
2571,2.571,-0.083
2572,2.572,-0.0865
2573,2.573,-0.087
2574,2.574,-0.0865
2575,2.575,-0.095
2576,2.576,-0.0885
2577,2.577,-0.0855
2578,2.578,-0.0795
2579,2.579,-0.0775
2580,2.58,-0.0915
2581,2.581,-0.0825
2582,2.582,-0.0885
2583,2.583,-0.0945
2584,2.584,-0.0865
2585,2.585,-0.084
2586,2.586,-0.062
2587,2.587,-0.049
2588,2.588,-0.074
2589,2.589,-0.0975
2590,2.59,-0.1035
2591,2.591,-0.1
2592,2.592,-0.0905
2593,2.593,-0.086
2594,2.594,-0.0805
2595,2.595,-0.103
2596,2.596,-0.1355
2597,2.597,-0.153
2598,2.598,-0.114
2599,2.599,-0.066
2600,2.6,-0.087
2601,2.601,-0.094
2602,2.602,-0.0905
2603,2.603,-0.114
2604,2.604,-0.133
2605,2.605,-0.086
2606,2.606,-0.0435
2607,2.607,-0.0665
2608,2.608,-0.08
2609,2.609,-0.084
2610,2.61,-0.093
2611,2.611,-0.0975
2612,2.612,-0.1025
2613,2.613,-0.103
2614,2.614,-0.096
2615,2.615,-0.0895
2616,2.616,-0.095
2617,2.617,-0.1055
2618,2.618,-0.101
2619,2.619,-0.102
2620,2.62,-0.101
2621,2.621,-0.096
2622,2.622,-0.095
2623,2.623,-0.0955
2624,2.624,-0.098
2625,2.625,-0.1045
2626,2.626,-0.104
2627,2.6270000000000002,-0.1015
2628,2.628,-0.1065
2629,2.629,-0.107
2630,2.63,-0.1085
2631,2.6310000000000002,-0.113
2632,2.632,-0.098
2633,2.633,-0.1035
2634,2.634,-0.135
2635,2.6350000000000002,-0.119
2636,2.636,-0.108
2637,2.637,-0.121
2638,2.638,-0.126
2639,2.6390000000000002,-0.121
2640,2.64,-0.1165
2641,2.641,-0.116
2642,2.642,-0.103
2643,2.6430000000000002,-0.0965
2644,2.644,-0.1
2645,2.645,-0.102
2646,2.646,-0.097
2647,2.6470000000000002,-0.0985
2648,2.648,-0.088
2649,2.649,-0.0835
2650,2.65,-0.105
2651,2.6510000000000002,-0.103
2652,2.652,-0.098
2653,2.653,-0.1065
2654,2.654,-0.1035
2655,2.6550000000000002,-0.0955
2656,2.656,-0.1095
2657,2.657,-0.1165
2658,2.658,-0.1105
2659,2.6590000000000003,-0.107
2660,2.66,-0.0885
2661,2.661,-0.0915
2662,2.662,-0.091
2663,2.6630000000000003,-0.081
2664,2.664,-0.084
2665,2.665,-0.096
2666,2.666,-0.1005
2667,2.6670000000000003,-0.095
2668,2.668,-0.097
2669,2.669,-0.094
2670,2.67,-0.097
2671,2.6710000000000003,-0.1105
2672,2.672,-0.11
2673,2.673,-0.096
2674,2.674,-0.1035
2675,2.6750000000000003,-0.105
2676,2.676,-0.094
2677,2.677,-0.0945
2678,2.678,-0.0895
2679,2.6790000000000003,-0.0795
2680,2.68,-0.0735
2681,2.681,-0.0695
2682,2.682,-0.0655
2683,2.6830000000000003,-0.046
2684,2.684,-0.047
2685,2.685,-0.076
2686,2.686,-0.064
2687,2.6870000000000003,-0.039
2688,2.688,-0.054
2689,2.689,-0.075
2690,2.69,-0.077
2691,2.691,-0.0735
2692,2.692,-0.0545
2693,2.693,-0.045
2694,2.694,-0.0575
2695,2.695,-0.051
2696,2.696,-0.045
2697,2.697,-0.06
2698,2.698,-0.063
2699,2.699,-0.0565
2700,2.7,-0.042
2701,2.701,-0.036
2702,2.702,-0.0485
2703,2.703,-0.046
2704,2.704,-0.053
2705,2.705,-0.061
2706,2.706,-0.062
2707,2.707,-0.0685
2708,2.708,-0.072
2709,2.709,-0.0685
2710,2.71,-0.047
2711,2.711,-0.059
2712,2.712,-0.0635
2713,2.713,-0.051
2714,2.714,-0.0605
2715,2.715,-0.0455
2716,2.716,-0.0505
2717,2.717,-0.0525
2718,2.718,-0.039
2719,2.719,-0.03
2720,2.72,-0.033
2721,2.721,-0.0465
2722,2.722,-0.0485
2723,2.723,-0.053
2724,2.724,-0.059
2725,2.725,-0.0695
2726,2.726,-0.0765
2727,2.727,-0.079
2728,2.728,-0.0855
2729,2.729,-0.084
2730,2.73,-0.0645
2731,2.731,-0.097
2732,2.732,-0.142
2733,2.733,-0.142
2734,2.734,-0.1335
2735,2.735,-0.127
2736,2.736,-0.125
2737,2.737,-0.1325
2738,2.738,-0.131
2739,2.739,-0.115
2740,2.74,-0.1195
2741,2.741,-0.1215
2742,2.742,-0.123
2743,2.743,-0.1225
2744,2.744,-0.123
2745,2.745,-0.1375
2746,2.746,-0.14
2747,2.747,-0.1405
2748,2.748,-0.141
2749,2.749,-0.147
2750,2.75,-0.1405
2751,2.751,-0.1495
2752,2.7520000000000002,-0.1605
2753,2.753,-0.1395
2754,2.754,-0.166
2755,2.755,-0.176
2756,2.7560000000000002,-0.158
2757,2.757,-0.163
2758,2.758,-0.165
2759,2.759,-0.167
2760,2.7600000000000002,-0.1635
2761,2.761,-0.159
2762,2.762,-0.156
2763,2.763,-0.155
2764,2.7640000000000002,-0.158
2765,2.765,-0.1645
2766,2.766,-0.159
2767,2.767,-0.1565
2768,2.7680000000000002,-0.166
2769,2.769,-0.1705
2770,2.77,-0.17
2771,2.771,-0.169
2772,2.7720000000000002,-0.174
2773,2.773,-0.185
2774,2.774,-0.1725
2775,2.775,-0.171
2776,2.7760000000000002,-0.185
2777,2.777,-0.18
2778,2.778,-0.1725
2779,2.779,-0.1575
2780,2.7800000000000002,-0.1615
2781,2.781,-0.166
2782,2.782,-0.1715
2783,2.783,-0.179
2784,2.7840000000000003,-0.1675
2785,2.785,-0.1575
2786,2.786,-0.1625
2787,2.787,-0.1715
2788,2.7880000000000003,-0.168
2789,2.789,-0.1645
2790,2.79,-0.159
2791,2.791,-0.156
2792,2.7920000000000003,-0.159
2793,2.793,-0.168
2794,2.794,-0.1685
2795,2.795,-0.172
2796,2.7960000000000003,-0.1835
2797,2.797,-0.173
2798,2.798,-0.17
2799,2.799,-0.1805
2800,2.8000000000000003,-0.1835
2801,2.801,-0.179
2802,2.802,-0.1955
2803,2.803,-0.241
2804,2.8040000000000003,-0.2605
2805,2.805,-0.264
2806,2.806,-0.2485
2807,2.807,-0.2415
2808,2.8080000000000003,-0.281
2809,2.809,-0.313
2810,2.81,-0.311
2811,2.811,-0.308
2812,2.8120000000000003,-0.3145
2813,2.813,-0.3235
2814,2.814,-0.3135
2815,2.815,-0.2885
2816,2.816,-0.2985
2817,2.817,-0.2745
2818,2.818,-0.249
2819,2.819,-0.2165
2820,2.82,-0.159
2821,2.821,-0.152
2822,2.822,-0.1335
2823,2.823,-0.0965
2824,2.824,-0.07
2825,2.825,-0.0515
2826,2.826,-0.001
2827,2.827,0.0495
2828,2.828,0.0895
2829,2.829,0.1465
2830,2.83,0.196
2831,2.831,0.232
2832,2.832,0.2675
2833,2.833,0.3175
2834,2.834,0.338
2835,2.835,0.343
2836,2.836,0.35
2837,2.837,0.3625
2838,2.838,0.367
2839,2.839,0.3495
2840,2.84,0.353
2841,2.841,0.344
2842,2.842,0.331
2843,2.843,0.341
2844,2.844,0.291
2845,2.845,0.237
2846,2.846,0.2265
2847,2.847,0.192
2848,2.848,0.161
2849,2.849,0.155
2850,2.85,0.1435
2851,2.851,0.1335
2852,2.852,0.136
2853,2.853,0.1295
2854,2.854,0.125
2855,2.855,0.1015
2856,2.856,0.079
2857,2.857,0.079
2858,2.858,0.082
2859,2.859,0.0725
2860,2.86,0.054
2861,2.861,0.041
2862,2.862,0.0175
2863,2.863,0.014
2864,2.864,-0.0065
2865,2.865,-0.0485
2866,2.866,-0.0805
2867,2.867,-0.083
2868,2.868,-0.06
2869,2.869,-0.084
2870,2.87,-0.1165
2871,2.871,-0.1495
2872,2.872,-0.177
2873,2.873,-0.177
2874,2.874,-0.2205
2875,2.875,-0.2645
2876,2.876,-0.283
2877,2.8770000000000002,-0.312
2878,2.878,-0.3305
2879,2.879,-0.352
2880,2.88,-0.372
2881,2.8810000000000002,-0.387
2882,2.882,-0.4025
2883,2.883,-0.4345
2884,2.884,-0.4585
2885,2.8850000000000002,-0.453
2886,2.886,-0.4655
2887,2.887,-0.487
2888,2.888,-0.5025
2889,2.8890000000000002,-0.5215
2890,2.89,-0.5365
2891,2.891,-0.546
2892,2.892,-0.558
2893,2.8930000000000002,-0.5655
2894,2.894,-0.569
2895,2.895,-0.574
2896,2.896,-0.5945
2897,2.8970000000000002,-0.623
2898,2.898,-0.624
2899,2.899,-0.6155
2900,2.9,-0.581
2901,2.9010000000000002,-0.57
2902,2.902,-0.588
2903,2.903,-0.5905
2904,2.904,-0.595
2905,2.9050000000000002,-0.5555
2906,2.906,-0.5155
2907,2.907,-0.492
2908,2.908,-0.477
2909,2.9090000000000003,-0.4825
2910,2.91,-0.446
2911,2.911,-0.4275
2912,2.912,-0.4215
2913,2.9130000000000003,-0.4035
2914,2.914,-0.387
2915,2.915,-0.366
2916,2.916,-0.3695
2917,2.9170000000000003,-0.3495
2918,2.918,-0.323
2919,2.919,-0.3255
2920,2.92,-0.314
2921,2.9210000000000003,-0.2825
2922,2.922,-0.2655
2923,2.923,-0.245
2924,2.924,-0.243
2925,2.9250000000000003,-0.245
2926,2.926,-0.234
2927,2.927,-0.2485
2928,2.928,-0.244
2929,2.9290000000000003,-0.2345
2930,2.93,-0.2285
2931,2.931,-0.2245
2932,2.932,-0.2325
2933,2.9330000000000003,-0.229
2934,2.934,-0.2355
2935,2.935,-0.2295
2936,2.936,-0.2255
2937,2.9370000000000003,-0.2105
2938,2.938,-0.1915
2939,2.939,-0.2065
2940,2.94,-0.206
2941,2.9410000000000003,-0.198
2942,2.942,-0.1905
2943,2.943,-0.1925
2944,2.944,-0.197
2945,2.945,-0.209
2946,2.946,-0.2035
2947,2.947,-0.19
2948,2.948,-0.217
2949,2.949,-0.2165
2950,2.95,-0.204
2951,2.951,-0.2055
2952,2.952,-0.211
2953,2.953,-0.2225
2954,2.954,-0.2135
2955,2.955,-0.204
2956,2.956,-0.216
2957,2.957,-0.209
2958,2.958,-0.212
2959,2.959,-0.2175
2960,2.96,-0.188
2961,2.961,-0.174
2962,2.962,-0.16
2963,2.963,-0.1665
2964,2.964,-0.18
2965,2.965,-0.176
2966,2.966,-0.177
2967,2.967,-0.178
2968,2.968,-0.1785
2969,2.969,-0.181
2970,2.97,-0.1865
2971,2.971,-0.1885
2972,2.972,-0.1875
2973,2.973,-0.1905
2974,2.974,-0.197
2975,2.975,-0.1855
2976,2.976,-0.1895
2977,2.977,-0.195
2978,2.978,-0.185
2979,2.979,-0.184
2980,2.98,-0.176
2981,2.981,-0.1645
2982,2.982,-0.183
2983,2.983,-0.1895
2984,2.984,-0.171
2985,2.985,-0.1895
2986,2.986,-0.203
2987,2.987,-0.201
2988,2.988,-0.197
2989,2.989,-0.1975
2990,2.99,-0.201
2991,2.991,-0.1995
2992,2.992,-0.204
2993,2.993,-0.203
2994,2.994,-0.1965
2995,2.995,-0.2025
2996,2.996,-0.2175
2997,2.997,-0.2025
2998,2.998,-0.1895
2999,2.999,-0.185
3000,3.0,-0.184
3001,3.001,-0.185
3002,3.0020000000000002,-0.181
3003,3.003,-0.1845
3004,3.004,-0.2005
3005,3.005,-0.2065
3006,3.0060000000000002,-0.158
3007,3.007,-0.17
3008,3.008,-0.2135
3009,3.009,-0.202
3010,3.0100000000000002,-0.207
3011,3.011,-0.21
3012,3.012,-0.2165
3013,3.013,-0.233
3014,3.0140000000000002,-0.197
3015,3.015,-0.1705
3016,3.016,-0.2045
3017,3.017,-0.2075
3018,3.0180000000000002,-0.186
3019,3.019,-0.1735
3020,3.02,-0.1585
3021,3.021,-0.1605
3022,3.0220000000000002,-0.1615
3023,3.023,-0.159
3024,3.024,-0.158
3025,3.025,-0.1375
3026,3.0260000000000002,-0.1565
3027,3.027,-0.189
3028,3.028,-0.168
3029,3.029,-0.16
3030,3.0300000000000002,-0.172
3031,3.031,-0.172
3032,3.032,-0.1655
3033,3.033,-0.164
3034,3.0340000000000003,-0.1655
3035,3.035,-0.162
3036,3.036,-0.1715
3037,3.037,-0.166
3038,3.0380000000000003,-0.158
3039,3.039,-0.1565
3040,3.04,-0.153
3041,3.041,-0.1465
3042,3.0420000000000003,-0.136
3043,3.043,-0.142
3044,3.044,-0.1465
3045,3.045,-0.1435
3046,3.0460000000000003,-0.1375
3047,3.047,-0.142
3048,3.048,-0.144
3049,3.049,-0.1345
3050,3.0500000000000003,-0.1335
3051,3.051,-0.1285
3052,3.052,-0.1325
3053,3.053,-0.1435
3054,3.0540000000000003,-0.1385
3055,3.055,-0.127
3056,3.056,-0.1175
3057,3.057,-0.1015
3058,3.0580000000000003,-0.108
3059,3.059,-0.1185
3060,3.06,-0.102
3061,3.061,-0.0895
3062,3.0620000000000003,-0.085
3063,3.063,-0.081
3064,3.064,-0.0785
3065,3.065,-0.0865
3066,3.0660000000000003,-0.0805
3067,3.067,-0.0785
3068,3.068,-0.0855
3069,3.069,-0.0685
3070,3.0700000000000003,-0.0745
3071,3.071,-0.07
3072,3.072,-0.0625
3073,3.073,-0.085
3074,3.074,-0.083
3075,3.075,-0.0785
3076,3.076,-0.103
3077,3.077,-0.0765
3078,3.078,-0.037
3079,3.079,-0.059
3080,3.08,-0.0375
3081,3.081,-0.0485
3082,3.082,-0.0685
3083,3.083,-0.0215
3084,3.084,-0.0135
3085,3.085,-0.037
3086,3.086,-0.047
3087,3.087,-0.0345
3088,3.088,-0.017
3089,3.089,-0.0125
3090,3.09,-0.0165
3091,3.091,-0.0255
3092,3.092,-0.026
3093,3.093,-0.0325
3094,3.094,-0.0375
3095,3.095,-0.0185
3096,3.096,-0.009
3097,3.097,0.0005
3098,3.098,0.0145
3099,3.099,0.0225
3100,3.1,0.0265
3101,3.101,0.0225
3102,3.102,0.0165
3103,3.103,0.003
3104,3.104,0.004
3105,3.105,0.023
3106,3.106,0.024
3107,3.107,0.014
3108,3.108,-0.011
3109,3.109,-0.014
3110,3.11,0.0235
3111,3.111,0.018
3112,3.112,0.005
3113,3.113,0.0195
3114,3.114,0.0285
3115,3.115,0.0215
3116,3.116,0.0105
3117,3.117,0.0275
3118,3.118,0.0295
3119,3.119,0.0165
3120,3.12,0.013
3121,3.121,0.024
3122,3.122,0.0475
3123,3.123,0.041
3124,3.124,0.0365
3125,3.125,0.0295
3126,3.126,0.0165
3127,3.1270000000000002,0.0145
3128,3.128,0.0105
3129,3.129,0.019
3130,3.13,0.026
3131,3.1310000000000002,0.0235
3132,3.132,0.022
3133,3.133,0.0135
3134,3.134,0.01
3135,3.1350000000000002,0.011
3136,3.136,0.01
3137,3.137,0.0185
3138,3.138,0.015
3139,3.1390000000000002,0.011
3140,3.14,0.013
3141,3.141,0.0135
3142,3.142,0.0135
3143,3.1430000000000002,0.017
3144,3.144,0.0185
3145,3.145,0.01
3146,3.146,0.0195
3147,3.1470000000000002,0.0045
3148,3.148,-0.0135
3149,3.149,-0.007
3150,3.15,-0.0085
3151,3.1510000000000002,-0.0205
3152,3.152,-0.04
3153,3.153,-0.0475
3154,3.154,-0.0335
3155,3.1550000000000002,-0.047
3156,3.156,-0.081
3157,3.157,-0.045
3158,3.158,-0.0165
3159,3.1590000000000003,-0.0345
3160,3.16,-0.0155
3161,3.161,-0.01
3162,3.162,-0.0485
3163,3.1630000000000003,-0.0405
3164,3.164,-0.032
3165,3.165,-0.0465
3166,3.166,-0.03
3167,3.1670000000000003,-0.0195
3168,3.168,-0.0295
3169,3.169,-0.051
3170,3.17,-0.067
3171,3.1710000000000003,-0.058
3172,3.172,-0.0505
3173,3.173,-0.077
3174,3.174,-0.075
3175,3.1750000000000003,-0.0705
3176,3.176,-0.103
3177,3.177,-0.0985
3178,3.178,-0.08
3179,3.1790000000000003,-0.081
3180,3.18,-0.0735
3181,3.181,-0.0755
3182,3.182,-0.0675
3183,3.1830000000000003,-0.071
3184,3.184,-0.076
3185,3.185,-0.0705
3186,3.186,-0.088
3187,3.1870000000000003,-0.091
3188,3.188,-0.08
3189,3.189,-0.0805
3190,3.19,-0.101
3191,3.1910000000000003,-0.105
3192,3.192,-0.1015
3193,3.193,-0.1045
3194,3.194,-0.1005
3195,3.1950000000000003,-0.1125
3196,3.196,-0.1205
3197,3.197,-0.111
3198,3.198,-0.1195
3199,3.1990000000000003,-0.121
3200,3.2,-0.1045
3201,3.201,-0.1035
3202,3.202,-0.107
3203,3.203,-0.1095
3204,3.204,-0.113
3205,3.205,-0.109
3206,3.206,-0.1065
3207,3.207,-0.1195
3208,3.208,-0.12
3209,3.209,-0.1205
3210,3.21,-0.128
3211,3.211,-0.1295
3212,3.212,-0.133
3213,3.213,-0.135
3214,3.214,-0.1335
3215,3.215,-0.136
3216,3.216,-0.1475
3217,3.217,-0.141
3218,3.218,-0.1445
3219,3.219,-0.1475
3220,3.22,-0.13
3221,3.221,-0.121
3222,3.222,-0.12
3223,3.223,-0.122
3224,3.224,-0.129
3225,3.225,-0.131
3226,3.226,-0.1245
3227,3.227,-0.132
3228,3.228,-0.133
3229,3.229,-0.1425
3230,3.23,-0.1475
3231,3.231,-0.134
3232,3.232,-0.1355
3233,3.233,-0.142
3234,3.234,-0.151
3235,3.235,-0.15
3236,3.236,-0.1545
3237,3.237,-0.146
3238,3.238,-0.1265
3239,3.239,-0.1355
3240,3.24,-0.1365
3241,3.241,-0.137
3242,3.242,-0.147
3243,3.243,-0.1445
3244,3.244,-0.1375
3245,3.245,-0.126
3246,3.246,-0.128
3247,3.247,-0.139
3248,3.248,-0.127
3249,3.249,-0.1315
3250,3.25,-0.124
3251,3.251,-0.1125
3252,3.2520000000000002,-0.156
3253,3.253,-0.1635
3254,3.254,-0.149
3255,3.255,-0.1495
3256,3.2560000000000002,-0.16
3257,3.257,-0.1725
3258,3.258,-0.138
3259,3.259,-0.1105
3260,3.2600000000000002,-0.1255
3261,3.261,-0.1325
3262,3.262,-0.12
3263,3.263,-0.122
3264,3.2640000000000002,-0.1325
3265,3.265,-0.138
3266,3.266,-0.1275
3267,3.267,-0.135
3268,3.2680000000000002,-0.1445
3269,3.269,-0.118
3270,3.27,-0.1135
3271,3.271,-0.1345
3272,3.2720000000000002,-0.15
3273,3.273,-0.1605
3274,3.274,-0.152
3275,3.275,-0.1405
3276,3.2760000000000002,-0.1405
3277,3.277,-0.1355
3278,3.278,-0.1435
3279,3.279,-0.153
3280,3.2800000000000002,-0.1405
3281,3.281,-0.1305
3282,3.282,-0.1335
3283,3.283,-0.132
3284,3.2840000000000003,-0.1395
3285,3.285,-0.141
3286,3.286,-0.119
3287,3.287,-0.1145
3288,3.2880000000000003,-0.126
3289,3.289,-0.1305
3290,3.29,-0.1315
3291,3.291,-0.1315
3292,3.2920000000000003,-0.135
3293,3.293,-0.129
3294,3.294,-0.1265
3295,3.295,-0.138
3296,3.2960000000000003,-0.1275
3297,3.297,-0.117
3298,3.298,-0.1215
3299,3.299,-0.1315
3300,3.3000000000000003,-0.1345
3301,3.301,-0.1255
3302,3.302,-0.118
3303,3.303,-0.1005
3304,3.3040000000000003,-0.1055
3305,3.305,-0.106
3306,3.306,-0.107
3307,3.307,-0.134
3308,3.3080000000000003,-0.135
3309,3.309,-0.1185
3310,3.31,-0.11
3311,3.311,-0.1315
3312,3.3120000000000003,-0.1515
3313,3.313,-0.143
3314,3.314,-0.1255
3315,3.315,-0.128
3316,3.3160000000000003,-0.147
3317,3.317,-0.136
3318,3.318,-0.1225
3319,3.319,-0.104
3320,3.3200000000000003,-0.1125
3321,3.321,-0.1315
3322,3.322,-0.127
3323,3.323,-0.146
3324,3.3240000000000003,-0.115
3325,3.325,-0.088
3326,3.326,-0.111
3327,3.327,-0.1225
3328,3.3280000000000003,-0.1335
3329,3.329,-0.1085
3330,3.33,-0.098
3331,3.331,-0.118
3332,3.332,-0.1085
3333,3.333,-0.129
3334,3.334,-0.132
3335,3.335,-0.105
3336,3.336,-0.119
3337,3.337,-0.113
3338,3.338,-0.108
3339,3.339,-0.112
3340,3.34,-0.1155
3341,3.341,-0.1435
3342,3.342,-0.13
3343,3.343,-0.094
3344,3.344,-0.086
3345,3.345,-0.0785
3346,3.346,-0.0885
3347,3.347,-0.104
3348,3.348,-0.105
3349,3.349,-0.104
3350,3.35,-0.1005
3351,3.351,-0.1075
3352,3.352,-0.1235
3353,3.353,-0.119
3354,3.354,-0.1125
3355,3.355,-0.114
3356,3.356,-0.105
3357,3.357,-0.1075
3358,3.358,-0.1205
3359,3.359,-0.1175
3360,3.36,-0.098
3361,3.361,-0.0985
3362,3.362,-0.1145
3363,3.363,-0.0885
3364,3.364,-0.066
3365,3.365,-0.086
3366,3.366,-0.0895
3367,3.367,-0.065
3368,3.368,-0.0865
3369,3.369,-0.105
3370,3.37,-0.088
3371,3.371,-0.108
3372,3.372,-0.106
3373,3.373,-0.088
3374,3.374,-0.09
3375,3.375,-0.0955
3376,3.376,-0.0965
3377,3.3770000000000002,-0.1055
3378,3.378,-0.1075
3379,3.379,-0.086
3380,3.38,-0.0955
3381,3.3810000000000002,-0.092
3382,3.382,-0.0715
3383,3.383,-0.073
3384,3.384,-0.0875
3385,3.3850000000000002,-0.1
3386,3.386,-0.094
3387,3.387,-0.085
3388,3.388,-0.08
3389,3.3890000000000002,-0.088
3390,3.39,-0.1025
3391,3.391,-0.102
3392,3.392,-0.0975
3393,3.3930000000000002,-0.099
3394,3.394,-0.0955
3395,3.395,-0.1005
3396,3.396,-0.1005
3397,3.3970000000000002,-0.084
3398,3.398,-0.0785
3399,3.399,-0.092
3400,3.4,-0.0845
3401,3.4010000000000002,-0.072
3402,3.402,-0.086
3403,3.403,-0.0805
3404,3.404,-0.071
3405,3.4050000000000002,-0.0745
3406,3.406,-0.0735
3407,3.407,-0.086
3408,3.408,-0.0955
3409,3.4090000000000003,-0.099
3410,3.41,-0.105
3411,3.411,-0.0915
3412,3.412,-0.086
3413,3.4130000000000003,-0.0945
3414,3.414,-0.0785
3415,3.415,-0.067
3416,3.416,-0.077
3417,3.4170000000000003,-0.089
3418,3.418,-0.096
3419,3.419,-0.081
3420,3.42,-0.0765
3421,3.4210000000000003,-0.086
3422,3.422,-0.1015
3423,3.423,-0.108
3424,3.424,-0.1065
3425,3.4250000000000003,-0.0965
3426,3.426,-0.059
3427,3.427,-0.052
3428,3.428,-0.0585
3429,3.4290000000000003,-0.0635
3430,3.43,-0.064
3431,3.431,-0.039
3432,3.432,-0.05
3433,3.4330000000000003,-0.0725
3434,3.434,-0.054
3435,3.435,-0.0495
3436,3.436,-0.0545
3437,3.4370000000000003,-0.0435
3438,3.438,-0.0485
3439,3.439,-0.055
3440,3.44,-0.0505
3441,3.4410000000000003,-0.051
3442,3.442,-0.0595
3443,3.443,-0.0525
3444,3.444,-0.0495
3445,3.4450000000000003,-0.0455
3446,3.446,-0.05
3447,3.447,-0.0795
3448,3.448,-0.0745
3449,3.4490000000000003,-0.0695
3450,3.45,-0.072
3451,3.451,-0.064
3452,3.452,-0.07
3453,3.4530000000000003,-0.077
3454,3.454,-0.083
3455,3.455,-0.07
3456,3.456,-0.0635
3457,3.457,-0.062
3458,3.458,-0.0325
3459,3.459,-0.022
3460,3.46,-0.0345
3461,3.461,-0.0435
3462,3.462,-0.048
3463,3.463,-0.057
3464,3.464,-0.068
3465,3.465,-0.086
3466,3.466,-0.068
3467,3.467,-0.053
3468,3.468,-0.074
3469,3.469,-0.088
3470,3.47,-0.098
3471,3.471,-0.097
3472,3.472,-0.105
3473,3.473,-0.1225
3474,3.474,-0.127
3475,3.475,-0.1
3476,3.476,-0.0925
3477,3.477,-0.1055
3478,3.478,-0.109
3479,3.479,-0.1145
3480,3.48,-0.108
3481,3.481,-0.109
3482,3.482,-0.1115
3483,3.483,-0.1125
3484,3.484,-0.122
3485,3.485,-0.116
3486,3.486,-0.12
3487,3.487,-0.136
3488,3.488,-0.135
3489,3.489,-0.142
3490,3.49,-0.1505
3491,3.491,-0.153
3492,3.492,-0.1625
3493,3.493,-0.1725
3494,3.494,-0.1735
3495,3.495,-0.1655
3496,3.496,-0.1605
3497,3.497,-0.161
3498,3.498,-0.1585
3499,3.499,-0.158
3500,3.5,-0.157
3501,3.501,-0.1545
3502,3.5020000000000002,-0.1515
3503,3.503,-0.155
3504,3.504,-0.1635
3505,3.505,-0.1555
3506,3.5060000000000002,-0.159
3507,3.507,-0.164
3508,3.508,-0.1555
3509,3.509,-0.162
3510,3.5100000000000002,-0.166
3511,3.511,-0.169
3512,3.512,-0.1715
3513,3.513,-0.1745
3514,3.5140000000000002,-0.1755
3515,3.515,-0.1745
3516,3.516,-0.176
3517,3.517,-0.174
3518,3.5180000000000002,-0.1765
3519,3.519,-0.1755
3520,3.52,-0.157
3521,3.521,-0.1495
3522,3.5220000000000002,-0.157
3523,3.523,-0.1605
3524,3.524,-0.1655
3525,3.525,-0.158
3526,3.5260000000000002,-0.156
3527,3.527,-0.161
3528,3.528,-0.163
3529,3.529,-0.1625
3530,3.5300000000000002,-0.1635
3531,3.531,-0.163
3532,3.532,-0.1565
3533,3.533,-0.1505
3534,3.5340000000000003,-0.1645
3535,3.535,-0.1845
3536,3.536,-0.168
3537,3.537,-0.169
3538,3.5380000000000003,-0.163
3539,3.539,-0.157
3540,3.54,-0.177
3541,3.541,-0.19
3542,3.5420000000000003,-0.181
3543,3.543,-0.1575
3544,3.544,-0.181
3545,3.545,-0.2045
3546,3.5460000000000003,-0.209
3547,3.547,-0.2345
3548,3.548,-0.244
3549,3.549,-0.255
3550,3.5500000000000003,-0.282
3551,3.551,-0.2945
3552,3.552,-0.3155
3553,3.553,-0.327
3554,3.5540000000000003,-0.308
3555,3.555,-0.325
3556,3.556,-0.3485
3557,3.557,-0.3395
3558,3.5580000000000003,-0.329
3559,3.559,-0.33
3560,3.56,-0.338
3561,3.561,-0.312
3562,3.5620000000000003,-0.2715
3563,3.563,-0.251
3564,3.564,-0.2395
3565,3.565,-0.2075
3566,3.5660000000000003,-0.176
3567,3.567,-0.1535
3568,3.568,-0.1145
3569,3.569,-0.0825
3570,3.5700000000000003,-0.052
3571,3.571,-0.03
3572,3.572,0.0035
3573,3.573,0.0695
3574,3.5740000000000003,0.1385
3575,3.575,0.183
3576,3.576,0.222
3577,3.577,0.2625
3578,3.5780000000000003,0.2985
3579,3.579,0.329
3580,3.58,0.3455
3581,3.581,0.3565
3582,3.5820000000000003,0.3585
3583,3.583,0.367
3584,3.584,0.361
3585,3.585,0.3525
3586,3.586,0.344
3587,3.587,0.3495
3588,3.588,0.332
3589,3.589,0.288
3590,3.59,0.253
3591,3.591,0.207
3592,3.592,0.175
3593,3.593,0.1465
3594,3.594,0.1245
3595,3.595,0.109
3596,3.596,0.124
3597,3.597,0.1435
3598,3.598,0.153
3599,3.599,0.147
3600,3.6,0.109
3601,3.601,0.091
3602,3.602,0.1075
3603,3.603,0.1015
3604,3.604,0.076
3605,3.605,0.064
3606,3.606,0.033
3607,3.607,0.008
3608,3.608,0.0165
3609,3.609,-0.015
3610,3.61,-0.0675
3611,3.611,-0.0835
3612,3.612,-0.1045
3613,3.613,-0.1225
3614,3.614,-0.133
3615,3.615,-0.152
3616,3.616,-0.16
3617,3.617,-0.1715
3618,3.618,-0.194
3619,3.619,-0.2125
3620,3.62,-0.2325
3621,3.621,-0.2735
3622,3.622,-0.328
3623,3.623,-0.3105
3624,3.624,-0.3215
3625,3.625,-0.398
3626,3.626,-0.4255
3627,3.6270000000000002,-0.4385
3628,3.628,-0.449
3629,3.629,-0.464
3630,3.63,-0.4825
3631,3.6310000000000002,-0.4885
3632,3.632,-0.506
3633,3.633,-0.557
3634,3.634,-0.585
3635,3.6350000000000002,-0.565
3636,3.636,-0.5555
3637,3.637,-0.557
3638,3.638,-0.571
3639,3.6390000000000002,-0.584
3640,3.64,-0.597
3641,3.641,-0.6215
3642,3.642,-0.622
3643,3.6430000000000002,-0.6165
3644,3.644,-0.616
3645,3.645,-0.6275
3646,3.646,-0.6165
3647,3.6470000000000002,-0.578
3648,3.648,-0.586
3649,3.649,-0.595
3650,3.65,-0.5805
3651,3.6510000000000002,-0.556
3652,3.652,-0.529
3653,3.653,-0.512
3654,3.654,-0.4905
3655,3.6550000000000002,-0.4755
3656,3.656,-0.4525
3657,3.657,-0.4255
3658,3.658,-0.4365
3659,3.6590000000000003,-0.413
3660,3.66,-0.3545
3661,3.661,-0.345
3662,3.662,-0.3335
3663,3.6630000000000003,-0.3135
3664,3.664,-0.3185
3665,3.665,-0.3205
3666,3.666,-0.3105
3667,3.6670000000000003,-0.2965
3668,3.668,-0.289
3669,3.669,-0.286
3670,3.67,-0.2765
3671,3.6710000000000003,-0.2745
3672,3.672,-0.266
3673,3.673,-0.2655
3674,3.674,-0.2675
3675,3.6750000000000003,-0.267
3676,3.676,-0.259
3677,3.677,-0.2475
3678,3.678,-0.258
3679,3.6790000000000003,-0.257
3680,3.68,-0.2495
3681,3.681,-0.224
3682,3.682,-0.209
3683,3.6830000000000003,-0.221
3684,3.684,-0.234
3685,3.685,-0.239
3686,3.686,-0.226
3687,3.6870000000000003,-0.2305
3688,3.688,-0.2255
3689,3.689,-0.215
3690,3.69,-0.215
3691,3.6910000000000003,-0.1975
3692,3.692,-0.216
3693,3.693,-0.2435
3694,3.694,-0.241
3695,3.6950000000000003,-0.239
3696,3.696,-0.2275
3697,3.697,-0.231
3698,3.698,-0.238
3699,3.6990000000000003,-0.2215
3700,3.7,-0.2265
3701,3.701,-0.2285
3702,3.702,-0.219
3703,3.7030000000000003,-0.206
3704,3.704,-0.196
3705,3.705,-0.22
3706,3.706,-0.2325
3707,3.7070000000000003,-0.2105
3708,3.708,-0.2025
3709,3.709,-0.236
3710,3.71,-0.2425
3711,3.7110000000000003,-0.225
3712,3.712,-0.223
3713,3.713,-0.2355
3714,3.714,-0.2475
3715,3.715,-0.252
3716,3.716,-0.251
3717,3.717,-0.217
3718,3.718,-0.2195
3719,3.719,-0.2375
3720,3.72,-0.224
3721,3.721,-0.2375
3722,3.722,-0.2515
3723,3.723,-0.2325
3724,3.724,-0.2135
3725,3.725,-0.2125
3726,3.726,-0.2295
3727,3.727,-0.236
3728,3.728,-0.237
3729,3.729,-0.254
3730,3.73,-0.2415
3731,3.731,-0.2195
3732,3.732,-0.2305
3733,3.733,-0.2445
3734,3.734,-0.248
3735,3.735,-0.2425
3736,3.736,-0.234
3737,3.737,-0.2425
3738,3.738,-0.237
3739,3.739,-0.2095
3740,3.74,-0.216
3741,3.741,-0.2295
3742,3.742,-0.2275
3743,3.743,-0.229
3744,3.744,-0.2345
3745,3.745,-0.226
3746,3.746,-0.2245
3747,3.747,-0.2335
3748,3.748,-0.229
3749,3.749,-0.24
3750,3.75,-0.2355
3751,3.751,-0.2235
3752,3.7520000000000002,-0.2335
3753,3.753,-0.231
3754,3.754,-0.2285
3755,3.755,-0.224
3756,3.7560000000000002,-0.221
3757,3.757,-0.227
3758,3.758,-0.2335
3759,3.759,-0.231
3760,3.7600000000000002,-0.224
3761,3.761,-0.218
3762,3.762,-0.184
3763,3.763,-0.1815
3764,3.7640000000000002,-0.2135
3765,3.765,-0.2105
3766,3.766,-0.2135
3767,3.767,-0.214
3768,3.7680000000000002,-0.206
3769,3.769,-0.216
3770,3.77,-0.2175
3771,3.771,-0.228
3772,3.7720000000000002,-0.235
3773,3.773,-0.228
3774,3.774,-0.224
3775,3.775,-0.2195
3776,3.7760000000000002,-0.2145
3777,3.777,-0.206
3778,3.778,-0.199
3779,3.779,-0.208
3780,3.7800000000000002,-0.2035
3781,3.781,-0.2
3782,3.782,-0.1935
3783,3.783,-0.1685
3784,3.7840000000000003,-0.1685
3785,3.785,-0.1565
3786,3.786,-0.1835
3787,3.787,-0.213
3788,3.7880000000000003,-0.1945
3789,3.789,-0.1745
3790,3.79,-0.167
3791,3.791,-0.168
3792,3.7920000000000003,-0.1705
3793,3.793,-0.165
3794,3.794,-0.167
3795,3.795,-0.168
3796,3.7960000000000003,-0.123
3797,3.797,-0.1335
3798,3.798,-0.1485
3799,3.799,-0.1325
3800,3.8000000000000003,-0.1315
3801,3.801,-0.115
3802,3.802,-0.106
3803,3.803,-0.0995
3804,3.8040000000000003,-0.0945
3805,3.805,-0.0975
3806,3.806,-0.113
3807,3.807,-0.1225
3808,3.8080000000000003,-0.1105
3809,3.809,-0.107
3810,3.81,-0.1095
3811,3.811,-0.0935
3812,3.8120000000000003,-0.097
3813,3.813,-0.105
3814,3.814,-0.0985
3815,3.815,-0.0955
3816,3.8160000000000003,-0.0825
3817,3.817,-0.07
3818,3.818,-0.0535
3819,3.819,-0.058
3820,3.8200000000000003,-0.0705
3821,3.821,-0.0595
3822,3.822,-0.068
3823,3.823,-0.083
3824,3.8240000000000003,-0.071
3825,3.825,-0.0565
3826,3.826,-0.045
3827,3.827,-0.0525
3828,3.8280000000000003,-0.0645
3829,3.829,-0.053
3830,3.83,-0.0395
3831,3.831,-0.0545
3832,3.8320000000000003,-0.066
3833,3.833,-0.025
3834,3.834,-0.019
3835,3.835,-0.047
3836,3.8360000000000003,-0.044
3837,3.837,-0.042
3838,3.838,-0.034
3839,3.839,-0.0135
3840,3.84,-0.002
3841,3.841,-0.0075
3842,3.842,-0.006
3843,3.843,-0.0015
3844,3.844,-0.005
3845,3.845,-0.0055
3846,3.846,-0.02
3847,3.847,-0.015
3848,3.848,-0.0155
3849,3.849,-0.0425
3850,3.85,-0.012
3851,3.851,0.0215
3852,3.852,-0.0135
3853,3.853,-0.032
3854,3.854,-0.018
3855,3.855,-0.0215
3856,3.856,-0.013
3857,3.857,0.0055
3858,3.858,-0.0235
3859,3.859,-0.0325
3860,3.86,-0.0105
3861,3.861,-0.01
3862,3.862,0.017
3863,3.863,0.021
3864,3.864,0.0085
3865,3.865,0.012
3866,3.866,0.0035
3867,3.867,0.0015
3868,3.868,-0.0065
3869,3.869,-0.009
3870,3.87,-0.008
3871,3.871,-0.0165
3872,3.872,-0.0185
3873,3.873,-0.022
3874,3.874,-0.0155
3875,3.875,-0.013
3876,3.876,-0.017
3877,3.8770000000000002,-0.013
3878,3.878,-0.017
3879,3.879,-0.0255
3880,3.88,-0.0195
3881,3.8810000000000002,-0.0035
3882,3.882,-0.0325
3883,3.883,-0.034
3884,3.884,0.017
3885,3.8850000000000002,0.0215
3886,3.886,-0.0185
3887,3.887,-0.043
3888,3.888,-0.0385
3889,3.8890000000000002,-0.0665
3890,3.89,-0.058
3891,3.891,-0.0105
3892,3.892,-0.034
3893,3.8930000000000002,-0.059
3894,3.894,-0.0405
3895,3.895,-0.0285
3896,3.896,-0.0285
3897,3.8970000000000002,-0.035
3898,3.898,-0.036
3899,3.899,-0.035
3900,3.9,-0.037
3901,3.9010000000000002,-0.0375
3902,3.902,-0.02
3903,3.903,-0.022
3904,3.904,-0.062
3905,3.9050000000000002,-0.0615
3906,3.906,-0.0595
3907,3.907,-0.0635
3908,3.908,-0.0565
3909,3.9090000000000003,-0.0835
3910,3.91,-0.1125
3911,3.911,-0.0875
3912,3.912,-0.062
3913,3.9130000000000003,-0.078
3914,3.914,-0.0815
3915,3.915,-0.0895
3916,3.916,-0.0915
3917,3.9170000000000003,-0.086
3918,3.918,-0.073
3919,3.919,-0.0655
3920,3.92,-0.0695
3921,3.9210000000000003,-0.0725
3922,3.922,-0.082
3923,3.923,-0.08
3924,3.924,-0.08
3925,3.9250000000000003,-0.0875
3926,3.926,-0.1095
3927,3.927,-0.096
3928,3.928,-0.096
3929,3.9290000000000003,-0.1185
3930,3.93,-0.1005
3931,3.931,-0.1005
3932,3.932,-0.105
3933,3.9330000000000003,-0.092
3934,3.934,-0.091
3935,3.935,-0.079
3936,3.936,-0.1025
3937,3.9370000000000003,-0.1355
3938,3.938,-0.1145
3939,3.939,-0.119
3940,3.94,-0.1175
3941,3.9410000000000003,-0.118
3942,3.942,-0.1205
3943,3.943,-0.116
3944,3.944,-0.1145
3945,3.9450000000000003,-0.1015
3946,3.946,-0.1155
3947,3.947,-0.1105
3948,3.948,-0.0905
3949,3.9490000000000003,-0.117
3950,3.95,-0.127
3951,3.951,-0.1175
3952,3.952,-0.138
3953,3.9530000000000003,-0.126
3954,3.954,-0.1105
3955,3.955,-0.1215
3956,3.956,-0.1195
3957,3.9570000000000003,-0.1195
3958,3.958,-0.121
3959,3.959,-0.1145
3960,3.96,-0.1145
3961,3.9610000000000003,-0.1125
3962,3.962,-0.1175
3963,3.963,-0.1225
3964,3.964,-0.1105
3965,3.9650000000000003,-0.1035
3966,3.966,-0.106
3967,3.967,-0.1035
3968,3.968,-0.106
3969,3.969,-0.143
3970,3.97,-0.1475
3971,3.971,-0.133
3972,3.972,-0.137
3973,3.973,-0.135
3974,3.974,-0.143
3975,3.975,-0.145
3976,3.976,-0.147
3977,3.977,-0.1405
3978,3.978,-0.131
3979,3.979,-0.1255
3980,3.98,-0.1235
3981,3.981,-0.1325
3982,3.982,-0.133
3983,3.983,-0.1405
3984,3.984,-0.1345
3985,3.985,-0.135
3986,3.986,-0.167
3987,3.987,-0.1785
3988,3.988,-0.1525
3989,3.989,-0.141
3990,3.99,-0.177
3991,3.991,-0.1815
3992,3.992,-0.158
3993,3.993,-0.171
3994,3.994,-0.165
3995,3.995,-0.15
3996,3.996,-0.153
3997,3.997,-0.146
3998,3.998,-0.1535
3999,3.999,-0.156
4000,4.0,-0.1445
4001,4.001,-0.1245
4002,4.002,-0.1305
4003,4.003,-0.158
4004,4.0040000000000004,-0.168
4005,4.005,-0.155
4006,4.006,-0.1345
4007,4.007,-0.143
4008,4.008,-0.152
4009,4.009,-0.1665
4010,4.01,-0.1855
4011,4.011,-0.179
4012,4.0120000000000005,-0.171
4013,4.013,-0.164
4014,4.014,-0.1615
4015,4.015,-0.1615
4016,4.016,-0.1595
4017,4.017,-0.163
4018,4.018,-0.158
4019,4.019,-0.1525
4020,4.0200000000000005,-0.149
4021,4.021,-0.1475
4022,4.022,-0.1475
4023,4.023,-0.1435
4024,4.024,-0.1355
4025,4.025,-0.131
4026,4.026,-0.1465
4027,4.027,-0.1525
4028,4.0280000000000005,-0.148
4029,4.029,-0.15
4030,4.03,-0.1565
4031,4.031,-0.1575
4032,4.032,-0.1595
4033,4.033,-0.1575
4034,4.034,-0.1475
4035,4.035,-0.1435
4036,4.0360000000000005,-0.1405
4037,4.037,-0.147
4038,4.038,-0.1585
4039,4.039,-0.1525
4040,4.04,-0.1405
4041,4.041,-0.1395
4042,4.042,-0.1445
4043,4.043,-0.15
4044,4.0440000000000005,-0.148
4045,4.045,-0.149
4046,4.046,-0.16
4047,4.047,-0.153
4048,4.048,-0.125
4049,4.049,-0.134
4050,4.05,-0.165
4051,4.051,-0.1695
4052,4.0520000000000005,-0.161
4053,4.053,-0.1425
4054,4.054,-0.147
4055,4.055,-0.1595
4056,4.056,-0.151
4057,4.057,-0.1435
4058,4.058,-0.1525
4059,4.059,-0.138
4060,4.0600000000000005,-0.1065
4061,4.061,-0.1405
4062,4.062,-0.151
4063,4.063,-0.1475
4064,4.064,-0.1685
4065,4.065,-0.1605
4066,4.066,-0.143
4067,4.067,-0.128
4068,4.0680000000000005,-0.144
4069,4.069,-0.149
4070,4.07,-0.1505
4071,4.071,-0.154
4072,4.072,-0.145
4073,4.073,-0.1565
4074,4.074,-0.158
4075,4.075,-0.1475
4076,4.0760000000000005,-0.142
4077,4.077,-0.167
4078,4.078,-0.1665
4079,4.079,-0.139
4080,4.08,-0.132
4081,4.081,-0.1325
4082,4.082,-0.1375
4083,4.083,-0.146
4084,4.0840000000000005,-0.145
4085,4.085,-0.1385
4086,4.086,-0.152
4087,4.087,-0.158
4088,4.088,-0.182
4089,4.089,-0.1495
4090,4.09,-0.1145
4091,4.091,-0.152
4092,4.0920000000000005,-0.166
4093,4.093,-0.157
4094,4.094,-0.151
4095,4.095,-0.1605
4096,4.096,-0.161
4097,4.097,-0.1435
4098,4.098,-0.12
4099,4.099,-0.136
4100,4.1,-0.1715
4101,4.101,-0.1615
4102,4.102,-0.13
4103,4.103,-0.1035
4104,4.104,-0.109
4105,4.105,-0.1525
4106,4.106,-0.1735
4107,4.107,-0.1625
4108,4.108,-0.1305
4109,4.109,-0.1205
4110,4.11,-0.144
4111,4.111,-0.154
4112,4.112,-0.1575
4113,4.113,-0.1445
4114,4.114,-0.146
4115,4.115,-0.151
4116,4.116,-0.149
4117,4.117,-0.1455
4118,4.118,-0.13
4119,4.119,-0.1385
4120,4.12,-0.1345
4121,4.121,-0.1205
4122,4.122,-0.113
4123,4.123,-0.114
4124,4.124,-0.1105
4125,4.125,-0.107
4126,4.126,-0.1175
4127,4.127,-0.127
4128,4.128,-0.1515
4129,4.1290000000000004,-0.1535
4130,4.13,-0.133
4131,4.131,-0.129
4132,4.132,-0.1435
4133,4.133,-0.137
4134,4.134,-0.117
4135,4.135,-0.1165
4136,4.136,-0.1195
4137,4.1370000000000005,-0.1195
4138,4.138,-0.112
4139,4.139,-0.1055
4140,4.14,-0.1005
4141,4.141,-0.0935
4142,4.142,-0.103
4143,4.143,-0.11
4144,4.144,-0.0985
4145,4.1450000000000005,-0.091
4146,4.146,-0.0915
4147,4.147,-0.117
4148,4.148,-0.131
4149,4.149,-0.135
4150,4.15,-0.1255
4151,4.151,-0.1195
4152,4.152,-0.148
4153,4.1530000000000005,-0.1515
4154,4.154,-0.147
4155,4.155,-0.124
4156,4.156,-0.1075
4157,4.157,-0.113
4158,4.158,-0.0985
4159,4.159,-0.092
4160,4.16,-0.1045
4161,4.1610000000000005,-0.126
4162,4.162,-0.0905
4163,4.163,-0.056
4164,4.164,-0.082
4165,4.165,-0.087
4166,4.166,-0.0915
4167,4.167,-0.0545
4168,4.168,-0.0625
4169,4.1690000000000005,-0.087
4170,4.17,-0.0505
4171,4.171,-0.0645
4172,4.172,-0.068
4173,4.173,-0.0715
4174,4.174,-0.0625
4175,4.175,-0.047
4176,4.176,-0.051
4177,4.1770000000000005,-0.0435
4178,4.178,-0.0405
4179,4.179,-0.037
4180,4.18,-0.034
4181,4.181,-0.05
4182,4.182,-0.0455
4183,4.183,-0.028
4184,4.184,-0.0375
4185,4.1850000000000005,-0.0435
4186,4.186,-0.061
4187,4.187,-0.074
4188,4.188,-0.0835
4189,4.189,-0.0595
4190,4.19,-0.0545
4191,4.191,-0.0745
4192,4.192,-0.079
4193,4.1930000000000005,-0.0945
4194,4.194,-0.0765
4195,4.195,-0.0735
4196,4.196,-0.0725
4197,4.197,-0.063
4198,4.198,-0.0565
4199,4.199,-0.046
4200,4.2,-0.0585
4201,4.2010000000000005,-0.0565
4202,4.202,-0.0365
4203,4.203,-0.045
4204,4.204,-0.0535
4205,4.205,-0.0435
4206,4.206,-0.052
4207,4.207,-0.0615
4208,4.208,-0.071
4209,4.2090000000000005,-0.0855
4210,4.21,-0.092
4211,4.211,-0.102
4212,4.212,-0.117
4213,4.213,-0.116
4214,4.214,-0.1015
4215,4.215,-0.1055
4216,4.216,-0.112
4217,4.2170000000000005,-0.1185
4218,4.218,-0.12
4219,4.219,-0.1185
4220,4.22,-0.13
4221,4.221,-0.127
4222,4.222,-0.1095
4223,4.223,-0.112
4224,4.224,-0.124
4225,4.225,-0.1135
4226,4.226,-0.114
4227,4.227,-0.1245
4228,4.228,-0.126
4229,4.229,-0.117
4230,4.23,-0.1095
4231,4.231,-0.1365
4232,4.232,-0.1695
4233,4.233,-0.1715
4234,4.234,-0.16
4235,4.235,-0.154
4236,4.236,-0.158
4237,4.237,-0.183
4238,4.238,-0.1845
4239,4.239,-0.152
4240,4.24,-0.14
4241,4.241,-0.1365
4242,4.242,-0.1325
4243,4.243,-0.156
4244,4.244,-0.1535
4245,4.245,-0.121
4246,4.246,-0.1185
4247,4.247,-0.1395
4248,4.248,-0.167
4249,4.249,-0.164
4250,4.25,-0.148
4251,4.251,-0.1435
4252,4.252,-0.1545
4253,4.253,-0.155
4254,4.2540000000000004,-0.1275
4255,4.255,-0.1545
4256,4.256,-0.167
4257,4.257,-0.1505
4258,4.258,-0.1555
4259,4.259,-0.141
4260,4.26,-0.1325
4261,4.261,-0.143
4262,4.2620000000000005,-0.1325
4263,4.263,-0.112
4264,4.264,-0.12
4265,4.265,-0.1215
4266,4.266,-0.158
4267,4.267,-0.1615
4268,4.268,-0.1375
4269,4.269,-0.159
4270,4.2700000000000005,-0.16
4271,4.271,-0.1515
4272,4.272,-0.1495
4273,4.273,-0.145
4274,4.274,-0.1535
4275,4.275,-0.1725
4276,4.276,-0.1595
4277,4.277,-0.158
4278,4.2780000000000005,-0.1525
4279,4.279,-0.1325
4280,4.28,-0.1375
4281,4.281,-0.1405
4282,4.282,-0.144
4283,4.283,-0.158
4284,4.284,-0.1665
4285,4.285,-0.1665
4286,4.2860000000000005,-0.1835
4287,4.287,-0.1985
4288,4.288,-0.215
4289,4.289,-0.2415
4290,4.29,-0.2525
4291,4.291,-0.2795
4292,4.292,-0.291
4293,4.293,-0.2975
4294,4.2940000000000005,-0.314
4295,4.295,-0.3365
4296,4.296,-0.3505
4297,4.297,-0.359
4298,4.298,-0.392
4299,4.299,-0.3385
4300,4.3,-0.276
4301,4.301,-0.283
4302,4.3020000000000005,-0.2905
4303,4.303,-0.272
4304,4.304,-0.245
4305,4.305,-0.233
4306,4.306,-0.211
4307,4.307,-0.183
4308,4.308,-0.144
4309,4.309,-0.1155
4310,4.3100000000000005,-0.1075
4311,4.311,-0.0735
4312,4.312,-0.0085
4313,4.313,0.033
4314,4.314,0.0635
4315,4.315,0.1325
4316,4.316,0.1885
4317,4.317,0.242
4318,4.3180000000000005,0.295
4319,4.319,0.331
4320,4.32,0.3415
4321,4.321,0.343
4322,4.322,0.386
4323,4.323,0.379
4324,4.324,0.3495
4325,4.325,0.3655
4326,4.3260000000000005,0.3795
4327,4.327,0.3665
4328,4.328,0.3605
4329,4.329,0.34
4330,4.33,0.302
4331,4.331,0.273
4332,4.332,0.21
4333,4.333,0.177
4334,4.3340000000000005,0.169
4335,4.335,0.1575
4336,4.336,0.1715
4337,4.337,0.183
4338,4.338,0.1895
4339,4.339,0.1975
4340,4.34,0.1865
4341,4.341,0.1585
4342,4.3420000000000005,0.1375
4343,4.343,0.1255
4344,4.344,0.122
4345,4.345,0.109
4346,4.346,0.086
4347,4.347,0.0575
4348,4.348,0.0215
4349,4.349,-0.0035
4350,4.3500000000000005,-0.027
4351,4.351,-0.0395
4352,4.352,-0.0455
4353,4.353,-0.0615
4354,4.354,-0.093
4355,4.355,-0.107
4356,4.356,-0.1105
4357,4.357,-0.144
4358,4.358,-0.17
4359,4.359,-0.203
4360,4.36,-0.2215
4361,4.361,-0.2355
4362,4.362,-0.2625
4363,4.363,-0.2795
4364,4.364,-0.2995
4365,4.365,-0.3225
4366,4.366,-0.356
4367,4.367,-0.373
4368,4.368,-0.3995
4369,4.369,-0.4255
4370,4.37,-0.4465
4371,4.371,-0.486
4372,4.372,-0.4835
4373,4.373,-0.468
4374,4.374,-0.4995
4375,4.375,-0.525
4376,4.376,-0.524
4377,4.377,-0.5335
4378,4.378,-0.529
4379,4.3790000000000004,-0.54
4380,4.38,-0.5565
4381,4.381,-0.5595
4382,4.382,-0.5655
4383,4.383,-0.5645
4384,4.384,-0.5835
4385,4.385,-0.607
4386,4.386,-0.619
4387,4.3870000000000005,-0.609
4388,4.388,-0.579
4389,4.389,-0.5635
4390,4.39,-0.5705
4391,4.391,-0.57
4392,4.392,-0.554
4393,4.393,-0.527
4394,4.394,-0.4725
4395,4.3950000000000005,-0.4525
4396,4.396,-0.475
4397,4.397,-0.489
4398,4.398,-0.46
4399,4.399,-0.405
4400,4.4,-0.3845
4401,4.401,-0.377
4402,4.402,-0.3575
4403,4.4030000000000005,-0.339
4404,4.404,-0.333
4405,4.405,-0.3205
4406,4.406,-0.316
4407,4.407,-0.3105
4408,4.408,-0.2965
4409,4.409,-0.2875
4410,4.41,-0.2725
4411,4.4110000000000005,-0.2655
4412,4.412,-0.2515
4413,4.413,-0.2375
4414,4.414,-0.238
4415,4.415,-0.2355
4416,4.416,-0.2305
4417,4.417,-0.2235
4418,4.418,-0.217
4419,4.4190000000000005,-0.206
4420,4.42,-0.211
4421,4.421,-0.2095
4422,4.422,-0.194
4423,4.423,-0.196
4424,4.424,-0.1905
4425,4.425,-0.2
4426,4.426,-0.2095
4427,4.4270000000000005,-0.2115
4428,4.428,-0.2295
4429,4.429,-0.2145
4430,4.43,-0.1925
4431,4.431,-0.191
4432,4.432,-0.204
4433,4.433,-0.202
4434,4.434,-0.1855
4435,4.4350000000000005,-0.192
4436,4.436,-0.2055
4437,4.437,-0.195
4438,4.438,-0.1635
4439,4.439,-0.18
4440,4.44,-0.1965
4441,4.441,-0.1885
4442,4.442,-0.1885
4443,4.4430000000000005,-0.1925
4444,4.444,-0.208
4445,4.445,-0.189
4446,4.446,-0.1655
4447,4.447,-0.188
4448,4.448,-0.1925
4449,4.449,-0.198
4450,4.45,-0.211
4451,4.4510000000000005,-0.206
4452,4.452,-0.209
4453,4.453,-0.196
4454,4.454,-0.195
4455,4.455,-0.1975
4456,4.456,-0.2
4457,4.457,-0.1845
4458,4.458,-0.194
4459,4.4590000000000005,-0.238
4460,4.46,-0.212
4461,4.461,-0.1875
4462,4.462,-0.1865
4463,4.463,-0.1765
4464,4.464,-0.1735
4465,4.465,-0.194
4466,4.466,-0.2125
4467,4.4670000000000005,-0.1955
4468,4.468,-0.1825
4469,4.469,-0.1905
4470,4.47,-0.1955
4471,4.471,-0.207
4472,4.472,-0.22
4473,4.473,-0.198
4474,4.474,-0.1775
4475,4.4750000000000005,-0.1865
4476,4.476,-0.194
4477,4.477,-0.1855
4478,4.478,-0.1885
4479,4.479,-0.2
4480,4.48,-0.182
4481,4.481,-0.1715
4482,4.482,-0.191
4483,4.483,-0.199
4484,4.484,-0.182
4485,4.485,-0.175
4486,4.486,-0.1765
4487,4.487,-0.188
4488,4.488,-0.21
4489,4.489,-0.201
4490,4.49,-0.164
4491,4.491,-0.178
4492,4.492,-0.213
4493,4.493,-0.177
4494,4.494,-0.1815
4495,4.495,-0.1985
4496,4.496,-0.165
4497,4.497,-0.175
4498,4.498,-0.1735
4499,4.499,-0.176
4500,4.5,-0.193
4501,4.501,-0.172
4502,4.502,-0.1725
4503,4.503,-0.1675
4504,4.5040000000000004,-0.1695
4505,4.505,-0.1875
4506,4.506,-0.184
4507,4.507,-0.1885
4508,4.508,-0.188
4509,4.509,-0.1885
4510,4.51,-0.191
4511,4.511,-0.19
4512,4.5120000000000005,-0.18
4513,4.513,-0.162
4514,4.514,-0.163
4515,4.515,-0.1665
4516,4.516,-0.158
4517,4.517,-0.1625
4518,4.518,-0.1555
4519,4.519,-0.1395
4520,4.5200000000000005,-0.137
4521,4.521,-0.1155
4522,4.522,-0.117
4523,4.523,-0.124
4524,4.524,-0.089
4525,4.525,-0.107
4526,4.526,-0.148
4527,4.527,-0.141
4528,4.5280000000000005,-0.123
4529,4.529,-0.121
4530,4.53,-0.12
4531,4.531,-0.11
4532,4.532,-0.121
4533,4.533,-0.13
4534,4.534,-0.1245
4535,4.535,-0.121
4536,4.5360000000000005,-0.1235
4537,4.537,-0.147
4538,4.538,-0.1375
4539,4.539,-0.092
4540,4.54,-0.1025
4541,4.541,-0.0915
4542,4.542,-0.06
4543,4.543,-0.0735
4544,4.5440000000000005,-0.0685
4545,4.545,-0.0635
4546,4.546,-0.0835
4547,4.547,-0.08
4548,4.548,-0.071
4549,4.549,-0.086
4550,4.55,-0.066
4551,4.551,-0.0565
4552,4.5520000000000005,-0.0615
4553,4.553,-0.0515
4554,4.554,-0.0555
4555,4.555,-0.0535
4556,4.556,-0.0395
4557,4.557,-0.022
4558,4.558,-0.03
4559,4.559,-0.0375
4560,4.5600000000000005,-0.0215
4561,4.561,-0.0235
4562,4.562,-0.0375
4563,4.563,-0.018
4564,4.564,-0.0005
4565,4.565,-0.012
4566,4.566,-0.02
4567,4.567,-0.0255
4568,4.5680000000000005,-0.017
4569,4.569,-0.0095
4570,4.57,-0.0125
4571,4.571,-0.018
4572,4.572,-0.02
4573,4.573,-0.0135
4574,4.574,-0.019
4575,4.575,0.0005
4576,4.5760000000000005,0.0075
4577,4.577,0.001
4578,4.578,0.0045
4579,4.579,0.001
4580,4.58,0.0115
4581,4.581,0.015
4582,4.582,0.0205
4583,4.583,0.0145
4584,4.5840000000000005,0.0205
4585,4.585,0.018
4586,4.586,-0.002
4587,4.587,0.009
4588,4.588,0.0195
4589,4.589,0.015
4590,4.59,0.0115
4591,4.591,0.0215
4592,4.5920000000000005,0.0195
4593,4.593,0.019
4594,4.594,0.026
4595,4.595,0.004
4596,4.596,0.021
4597,4.597,0.0495
4598,4.598,0.046
4599,4.599,0.031
4600,4.6000000000000005,0.02
4601,4.601,0.02
4602,4.602,0.038
4603,4.603,0.08
4604,4.604,0.052
4605,4.605,0.026
4606,4.606,0.0415
4607,4.607,0.0355
4608,4.6080000000000005,0.041
4609,4.609,0.031
4610,4.61,0.003
4611,4.611,0.0185
4612,4.612,0.035
4613,4.613,0.0355
4614,4.614,0.0515
4615,4.615,0.0205
4616,4.616,0.0015
4617,4.617,0.026
4618,4.618,0.027
4619,4.619,0.0275
4620,4.62,0.025
4621,4.621,0.032
4622,4.622,0.0575
4623,4.623,0.034
4624,4.624,0.025
4625,4.625,0.027
4626,4.626,0.01
4627,4.627,0.014
4628,4.628,0.0065
4629,4.6290000000000004,0.0035
4630,4.63,0.0045
4631,4.631,-0.0035
4632,4.632,-0.003
4633,4.633,0.012
4634,4.634,0.0125
4635,4.635,0.012
4636,4.636,0.0145
4637,4.6370000000000005,0.0065
4638,4.638,0.0045
4639,4.639,0.0035
4640,4.64,0.008
4641,4.641,0.0205
4642,4.642,0.0135
4643,4.643,0.0045
4644,4.644,0.004
4645,4.6450000000000005,-0.013
4646,4.646,-0.0015
4647,4.647,-0.0075
4648,4.648,-0.023
4649,4.649,-0.013
4650,4.65,-0.0115
4651,4.651,-0.019
4652,4.652,-0.013
4653,4.6530000000000005,-0.004
4654,4.654,-0.015
4655,4.655,-0.009
4656,4.656,-0.0195
4657,4.657,-0.018
4658,4.658,-0.006
4659,4.659,-0.017
4660,4.66,-0.025
4661,4.6610000000000005,-0.0345
4662,4.662,-0.0215
4663,4.663,-0.014
4664,4.664,-0.0185
4665,4.665,-0.013
4666,4.666,-0.0225
4667,4.667,-0.0325
4668,4.668,-0.041
4669,4.6690000000000005,-0.0395
4670,4.67,-0.0275
4671,4.671,-0.0355
4672,4.672,-0.0435
4673,4.673,-0.0355
4674,4.674,-0.0285
4675,4.675,-0.035
4676,4.676,-0.047
4677,4.6770000000000005,-0.0585
4678,4.678,-0.0455
4679,4.679,-0.0285
4680,4.68,-0.056
4681,4.681,-0.0655
4682,4.682,-0.0545
4683,4.683,-0.0595
4684,4.684,-0.057
4685,4.6850000000000005,-0.048
4686,4.686,-0.0405
4687,4.687,-0.0605
4688,4.688,-0.0705
4689,4.689,-0.077
4690,4.69,-0.0815
4691,4.691,-0.0735
4692,4.692,-0.0845
4693,4.6930000000000005,-0.067
4694,4.694,-0.0665
4695,4.695,-0.0575
4696,4.696,-0.033
4697,4.697,-0.057
4698,4.698,-0.0745
4699,4.699,-0.092
4700,4.7,-0.1035
4701,4.7010000000000005,-0.0995
4702,4.702,-0.0945
4703,4.703,-0.102
4704,4.704,-0.113
4705,4.705,-0.0785
4706,4.706,-0.069
4707,4.707,-0.082
4708,4.708,-0.098
4709,4.7090000000000005,-0.102
4710,4.71,-0.083
4711,4.711,-0.0965
4712,4.712,-0.101
4713,4.713,-0.101
4714,4.714,-0.115
4715,4.715,-0.108
4716,4.716,-0.0925
4717,4.7170000000000005,-0.0895
4718,4.718,-0.084
4719,4.719,-0.08
4720,4.72,-0.0905
4721,4.721,-0.086
4722,4.722,-0.076
4723,4.723,-0.0845
4724,4.724,-0.09
4725,4.7250000000000005,-0.0875
4726,4.726,-0.081
4727,4.727,-0.079
4728,4.728,-0.082
4729,4.729,-0.093
4730,4.73,-0.112
4731,4.731,-0.0995
4732,4.732,-0.079
4733,4.7330000000000005,-0.091
4734,4.734,-0.101
4735,4.735,-0.096
4736,4.736,-0.083
4737,4.737,-0.079
4738,4.738,-0.08
4739,4.739,-0.064
4740,4.74,-0.061
4741,4.741,-0.075
4742,4.742,-0.071
4743,4.743,-0.073
4744,4.744,-0.0665
4745,4.745,-0.05
4746,4.746,-0.064
4747,4.747,-0.0775
4748,4.748,-0.078
4749,4.749,-0.0755
4750,4.75,-0.081
4751,4.751,-0.091
4752,4.752,-0.0955
4753,4.753,-0.0835
4754,4.7540000000000004,-0.0765
4755,4.755,-0.0765
4756,4.756,-0.071
4757,4.757,-0.07
4758,4.758,-0.0715
4759,4.759,-0.065
4760,4.76,-0.062
4761,4.761,-0.069
4762,4.7620000000000005,-0.0725
4763,4.763,-0.0795
4764,4.764,-0.0685
4765,4.765,-0.0555
4766,4.766,-0.046
4767,4.767,-0.0505
4768,4.768,-0.062
4769,4.769,-0.0705
4770,4.7700000000000005,-0.108
4771,4.771,-0.1105
4772,4.772,-0.0615
4773,4.773,-0.045
4774,4.774,-0.0645
4775,4.775,-0.0635
4776,4.776,-0.051
4777,4.777,-0.045
4778,4.7780000000000005,-0.054
4779,4.779,-0.063
4780,4.78,-0.057
4781,4.781,-0.064
4782,4.782,-0.043
4783,4.783,-0.0185
4784,4.784,-0.0375
4785,4.785,-0.0465
4786,4.7860000000000005,-0.055
4787,4.787,-0.066
4788,4.788,-0.067
4789,4.789,-0.062
4790,4.79,-0.0515
4791,4.791,-0.0455
4792,4.792,-0.048
4793,4.793,-0.0455
4794,4.7940000000000005,-0.075
4795,4.795,-0.091
4796,4.796,-0.0675
4797,4.797,-0.08
4798,4.798,-0.056
4799,4.799,-0.032
4800,4.8,-0.04
4801,4.801,-0.0535
4802,4.8020000000000005,-0.067
4803,4.803,-0.053
4804,4.804,-0.0545
4805,4.805,-0.0445
4806,4.806,-0.0345
4807,4.807,-0.0445
4808,4.808,-0.0485
4809,4.809,-0.0575
4810,4.8100000000000005,-0.059
4811,4.811,-0.061
4812,4.812,-0.0715
4813,4.813,-0.0735
4814,4.814,-0.0735
4815,4.815,-0.077
4816,4.816,-0.075
4817,4.817,-0.0875
4818,4.8180000000000005,-0.0975
4819,4.819,-0.069
4820,4.82,-0.0555
4821,4.821,-0.0515
4822,4.822,-0.0415
4823,4.823,-0.0565
4824,4.824,-0.061
4825,4.825,-0.0425
4826,4.8260000000000005,-0.047
4827,4.827,-0.049
4828,4.828,-0.046
4829,4.829,-0.082
4830,4.83,-0.0715
4831,4.831,-0.035
4832,4.832,-0.038
4833,4.833,-0.0355
4834,4.8340000000000005,-0.053
4835,4.835,-0.061
4836,4.836,-0.055
4837,4.837,-0.064
4838,4.838,-0.0655
4839,4.839,-0.08
4840,4.84,-0.078
4841,4.841,-0.0685
4842,4.8420000000000005,-0.0715
4843,4.843,-0.0665
4844,4.844,-0.051
4845,4.845,-0.058
4846,4.846,-0.072
4847,4.847,-0.0595
4848,4.848,-0.0655
4849,4.849,-0.0715
4850,4.8500000000000005,-0.0735
4851,4.851,-0.081
4852,4.852,-0.076
4853,4.853,-0.0745
4854,4.854,-0.088
4855,4.855,-0.084
4856,4.856,-0.065
4857,4.857,-0.0615
4858,4.8580000000000005,-0.057
4859,4.859,-0.0595
4860,4.86,-0.07
4861,4.861,-0.0735
4862,4.862,-0.0825
4863,4.863,-0.077
4864,4.864,-0.062
4865,4.865,-0.0675
4866,4.866,-0.071
4867,4.867,-0.072
4868,4.868,-0.0755
4869,4.869,-0.078
4870,4.87,-0.0785
4871,4.871,-0.0745
4872,4.872,-0.075
4873,4.873,-0.0765
4874,4.874,-0.073
4875,4.875,-0.058
4876,4.876,-0.0535
4877,4.877,-0.062
4878,4.878,-0.058
4879,4.8790000000000004,-0.063
4880,4.88,-0.062
4881,4.881,-0.049
4882,4.882,-0.028
4883,4.883,-0.0025
4884,4.884,-0.0335
4885,4.885,-0.074
4886,4.886,-0.1065
4887,4.8870000000000005,-0.113
4888,4.888,-0.065
4889,4.889,-0.0595
4890,4.89,-0.085
4891,4.891,-0.093
4892,4.892,-0.1035
4893,4.893,-0.078
4894,4.894,-0.053
4895,4.8950000000000005,-0.0605
4896,4.896,-0.0625
4897,4.897,-0.044
4898,4.898,-0.034
4899,4.899,-0.057
4900,4.9,-0.043
4901,4.901,-0.025
4902,4.902,-0.0145
4903,4.9030000000000005,-0.0005
4904,4.904,-0.0075
4905,4.905,-0.0215
4906,4.906,-0.0155
4907,4.907,-0.0115
4908,4.908,-0.013
4909,4.909,-0.0165
4910,4.91,-0.0235
4911,4.9110000000000005,-0.0095
4912,4.912,-0.016
4913,4.913,-0.0095
4914,4.914,-0.0175
4915,4.915,-0.0245
4916,4.916,-0.02
4917,4.917,-0.026
4918,4.918,-0.031
4919,4.9190000000000005,-0.0265
4920,4.92,-0.004
4921,4.921,-0.022
4922,4.922,-0.0335
4923,4.923,-0.027
4924,4.924,-0.0255
4925,4.925,-0.0215
4926,4.926,-0.0295
4927,4.9270000000000005,-0.0305
4928,4.928,-0.0125
4929,4.929,0.0
4930,4.93,-0.0135
4931,4.931,-0.0095
4932,4.932,0.0
4933,4.933,-0.0005
4934,4.934,-0.009
4935,4.9350000000000005,-0.036
4936,4.936,-0.049
4937,4.937,-0.047
4938,4.938,-0.032
4939,4.939,-0.0155
4940,4.94,-0.0245
4941,4.941,-0.0305
4942,4.942,-0.0545
4943,4.9430000000000005,-0.079
4944,4.944,-0.0385
4945,4.945,-0.031
4946,4.946,-0.056
4947,4.947,-0.0735
4948,4.948,-0.0795
4949,4.949,-0.076
4950,4.95,-0.1065
4951,4.9510000000000005,-0.123
4952,4.952,-0.112
4953,4.953,-0.1025
4954,4.954,-0.088
4955,4.955,-0.089
4956,4.956,-0.106
4957,4.957,-0.106
4958,4.958,-0.1085
4959,4.9590000000000005,-0.0935
4960,4.96,-0.086
4961,4.961,-0.0935
4962,4.962,-0.096
4963,4.963,-0.116
4964,4.964,-0.095
4965,4.965,-0.0885
4966,4.966,-0.1065
4967,4.9670000000000005,-0.098
4968,4.968,-0.1395
4969,4.969,-0.1515
4970,4.97,-0.1175
4971,4.971,-0.1375
4972,4.972,-0.1405
4973,4.973,-0.11
4974,4.974,-0.1055
4975,4.9750000000000005,-0.1065
4976,4.976,-0.1015
4977,4.977,-0.1125
4978,4.978,-0.129
4979,4.979,-0.119
4980,4.98,-0.1115
4981,4.981,-0.1035
4982,4.982,-0.091
4983,4.9830000000000005,-0.103
4984,4.984,-0.115
4985,4.985,-0.143
4986,4.986,-0.1345
4987,4.987,-0.1105
4988,4.988,-0.1285
4989,4.989,-0.1335
4990,4.99,-0.124
4991,4.9910000000000005,-0.1305
4992,4.992,-0.1405
4993,4.993,-0.134
4994,4.994,-0.145
4995,4.995,-0.1205
4996,4.996,-0.118
4997,4.997,-0.1455
4998,4.998,-0.134
4999,4.999,-0.1275
5000,5.0,-0.117
5001,5.001,-0.1185
5002,5.002,-0.1275
5003,5.003,-0.12
5004,5.0040000000000004,-0.11
5005,5.005,-0.122
5006,5.006,-0.1245
5007,5.007,-0.115
5008,5.008,-0.1225
5009,5.009,-0.1525
5010,5.01,-0.1535
5011,5.011,-0.14
5012,5.0120000000000005,-0.1505
5013,5.013,-0.1525
5014,5.014,-0.167
5015,5.015,-0.177
5016,5.016,-0.1695
5017,5.017,-0.169
5018,5.018,-0.188
5019,5.019,-0.203
5020,5.0200000000000005,-0.2065
5021,5.021,-0.2155
5022,5.022,-0.2205
5023,5.023,-0.241
5024,5.024,-0.2805
5025,5.025,-0.303
5026,5.026,-0.3015
5027,5.027,-0.316
5028,5.0280000000000005,-0.314
5029,5.029,-0.3085
5030,5.03,-0.3195
5031,5.031,-0.3065
5032,5.032,-0.281
5033,5.033,-0.2625
5034,5.034,-0.252
5035,5.035,-0.22
5036,5.0360000000000005,-0.1755
5037,5.037,-0.1535
5038,5.038,-0.1265
5039,5.039,-0.114
5040,5.04,-0.1005
5041,5.041,-0.007
5042,5.042,0.048
5043,5.043,0.076
5044,5.0440000000000005,0.112
5045,5.045,0.138
5046,5.046,0.192
5047,5.047,0.2125
5048,5.048,0.244
5049,5.049,0.2925
5050,5.05,0.321
5051,5.051,0.3415
5052,5.0520000000000005,0.351
5053,5.053,0.3525
5054,5.054,0.353
5055,5.055,0.3615
5056,5.056,0.371
5057,5.057,0.3645
5058,5.058,0.3555
5059,5.059,0.3395
5060,5.0600000000000005,0.287
5061,5.061,0.239
5062,5.062,0.227
5063,5.063,0.2125
5064,5.064,0.183
5065,5.065,0.1655
5066,5.066,0.164
5067,5.067,0.175
5068,5.0680000000000005,0.1875
5069,5.069,0.176
5070,5.07,0.168
5071,5.071,0.138
5072,5.072,0.1045
5073,5.073,0.1
5074,5.074,0.077
5075,5.075,0.0855
5076,5.0760000000000005,0.082
5077,5.077,0.0435
5078,5.078,0.0185
5079,5.079,0.006
5080,5.08,-0.0095
5081,5.081,-0.0335
5082,5.082,-0.0425
5083,5.083,-0.047
5084,5.0840000000000005,-0.0395
5085,5.085,-0.072
5086,5.086,-0.123
5087,5.087,-0.142
5088,5.088,-0.177
5089,5.089,-0.209
5090,5.09,-0.2355
5091,5.091,-0.262
5092,5.0920000000000005,-0.2735
5093,5.093,-0.2765
5094,5.094,-0.2985
5095,5.095,-0.331
5096,5.096,-0.356
5097,5.097,-0.379
5098,5.098,-0.3935
5099,5.099,-0.4045
5100,5.1000000000000005,-0.4155
5101,5.101,-0.425
5102,5.102,-0.4345
5103,5.103,-0.4415
5104,5.104,-0.4785
5105,5.105,-0.5235
5106,5.106,-0.5135
5107,5.107,-0.522
5108,5.1080000000000005,-0.5505
5109,5.109,-0.565
5110,5.11,-0.575
5111,5.111,-0.5785
5112,5.112,-0.584
5113,5.113,-0.5945
5114,5.114,-0.607
5115,5.115,-0.6025
5116,5.1160000000000005,-0.614
5117,5.117,-0.586
5118,5.118,-0.5615
5119,5.119,-0.5715
5120,5.12,-0.557
5121,5.121,-0.554
5122,5.122,-0.578
5123,5.123,-0.5455
5124,5.124,-0.4665
5125,5.125,-0.461
5126,5.126,-0.468
5127,5.127,-0.449
5128,5.128,-0.4365
5129,5.1290000000000004,-0.429
5130,5.13,-0.3995
5131,5.131,-0.3855
5132,5.132,-0.386
5133,5.133,-0.3715
5134,5.134,-0.3605
5135,5.135,-0.329
5136,5.136,-0.3115
5137,5.1370000000000005,-0.298
5138,5.138,-0.28
5139,5.139,-0.2705
5140,5.14,-0.248
5141,5.141,-0.2335
5142,5.142,-0.227
5143,5.143,-0.2225
5144,5.144,-0.2355
5145,5.1450000000000005,-0.2445
5146,5.146,-0.2325
5147,5.147,-0.2335
5148,5.148,-0.2335
5149,5.149,-0.2265
5150,5.15,-0.234
5151,5.151,-0.2295
5152,5.152,-0.2095
5153,5.1530000000000005,-0.2135
5154,5.154,-0.218
5155,5.155,-0.211
5156,5.156,-0.217
5157,5.157,-0.213
5158,5.158,-0.2095
5159,5.159,-0.21
5160,5.16,-0.2095
5161,5.1610000000000005,-0.202
5162,5.162,-0.205
5163,5.163,-0.2025
5164,5.164,-0.176
5165,5.165,-0.166
5166,5.166,-0.1715
5167,5.167,-0.182
5168,5.168,-0.176
5169,5.1690000000000005,-0.1995
5170,5.17,-0.2235
5171,5.171,-0.2105
5172,5.172,-0.2085
5173,5.173,-0.1675
5174,5.174,-0.156
5175,5.175,-0.175
5176,5.176,-0.1825
5177,5.1770000000000005,-0.196
5178,5.178,-0.196
5179,5.179,-0.1945
5180,5.18,-0.165
5181,5.181,-0.1655
5182,5.182,-0.174
5183,5.183,-0.1685
5184,5.184,-0.17
5185,5.1850000000000005,-0.1685
5186,5.186,-0.179
5187,5.187,-0.1855
5188,5.188,-0.1925
5189,5.189,-0.19
5190,5.19,-0.165
5191,5.191,-0.152
5192,5.192,-0.172
5193,5.1930000000000005,-0.1895
5194,5.194,-0.187
5195,5.195,-0.1885
5196,5.196,-0.192
5197,5.197,-0.179
5198,5.198,-0.1695
5199,5.199,-0.1585
5200,5.2,-0.163
5201,5.2010000000000005,-0.1725
5202,5.202,-0.169
5203,5.203,-0.1655
5204,5.204,-0.17
5205,5.205,-0.1805
5206,5.206,-0.1795
5207,5.207,-0.195
5208,5.208,-0.1835
5209,5.2090000000000005,-0.1635
5210,5.21,-0.1685
5211,5.211,-0.18
5212,5.212,-0.1825
5213,5.213,-0.186
5214,5.214,-0.196
5215,5.215,-0.1775
5216,5.216,-0.178
5217,5.2170000000000005,-0.1865
5218,5.218,-0.1815
5219,5.219,-0.168
5220,5.22,-0.159
5221,5.221,-0.156
5222,5.222,-0.15
5223,5.223,-0.16
5224,5.224,-0.1635
5225,5.2250000000000005,-0.176
5226,5.226,-0.183
5227,5.227,-0.211
5228,5.228,-0.212
5229,5.229,-0.155
5230,5.23,-0.1415
5231,5.231,-0.144
5232,5.232,-0.1695
5233,5.2330000000000005,-0.1805
5234,5.234,-0.18
5235,5.235,-0.1795
5236,5.236,-0.168
5237,5.237,-0.166
5238,5.238,-0.161
5239,5.239,-0.152
5240,5.24,-0.1495
5241,5.2410000000000005,-0.156
5242,5.242,-0.157
5243,5.243,-0.16
5244,5.244,-0.152
5245,5.245,-0.1545
5246,5.246,-0.1565
5247,5.247,-0.1545
5248,5.248,-0.1545
5249,5.249,-0.145
5250,5.25,-0.1575
5251,5.251,-0.166
5252,5.252,-0.1615
5253,5.253,-0.1545
5254,5.2540000000000004,-0.146
5255,5.255,-0.1465
5256,5.256,-0.1485
5257,5.257,-0.132
5258,5.258,-0.114
5259,5.259,-0.1155
5260,5.26,-0.096
5261,5.261,-0.0815
5262,5.2620000000000005,-0.12
5263,5.263,-0.1425
5264,5.264,-0.1155
5265,5.265,-0.096
5266,5.266,-0.0945
5267,5.267,-0.104
5268,5.268,-0.109
5269,5.269,-0.1175
5270,5.2700000000000005,-0.1025
5271,5.271,-0.0905
5272,5.272,-0.1055
5273,5.273,-0.1105
5274,5.274,-0.1235
5275,5.275,-0.107
5276,5.276,-0.082
5277,5.277,-0.074
5278,5.2780000000000005,-0.071
5279,5.279,-0.0605
5280,5.28,-0.0535
5281,5.281,-0.055
5282,5.282,-0.069
5283,5.283,-0.07
5284,5.284,-0.0575
5285,5.285,-0.072
5286,5.2860000000000005,-0.055
5287,5.287,-0.034
5288,5.288,-0.0565
5289,5.289,-0.066
5290,5.29,-0.058
5291,5.291,-0.0585
5292,5.292,-0.053
5293,5.293,-0.042
5294,5.2940000000000005,-0.029
5295,5.295,-0.026
5296,5.296,-0.033
5297,5.297,-0.034
5298,5.298,-0.012
5299,5.299,-0.0075
5300,5.3,-0.023
5301,5.301,-0.0215
5302,5.3020000000000005,-0.0065
5303,5.303,0.009
5304,5.304,0.001
5305,5.305,-0.011
5306,5.306,-0.012
5307,5.307,-0.0175
5308,5.308,-0.031
5309,5.309,-0.0255
5310,5.3100000000000005,-0.0075
5311,5.311,-0.011
5312,5.312,-0.011
5313,5.313,0.0005
5314,5.314,0.0095
5315,5.315,0.012
5316,5.316,-0.0025
5317,5.317,-0.0095
5318,5.3180000000000005,0.0015
5319,5.319,0.014
5320,5.32,0.017
5321,5.321,0.02
5322,5.322,0.0095
5323,5.323,0.008
5324,5.324,0.0245
5325,5.325,0.0215
5326,5.3260000000000005,0.028
5327,5.327,0.0115
5328,5.328,0.0005
5329,5.329,0.0165
5330,5.33,0.0095
5331,5.331,0.0035
5332,5.332,-0.001
5333,5.333,0.001
5334,5.3340000000000005,0.014
5335,5.335,0.0215
5336,5.336,0.0205
5337,5.337,0.027
5338,5.338,0.0265
5339,5.339,0.003
5340,5.34,0.017
5341,5.341,0.0175
5342,5.3420000000000005,0.0015
5343,5.343,0.019
5344,5.344,0.008
5345,5.345,0.0045
5346,5.346,0.0045
5347,5.347,-0.021
5348,5.348,-0.0015
5349,5.349,0.0095
5350,5.3500000000000005,-0.006
5351,5.351,-0.0005
5352,5.352,-0.0005
5353,5.353,0.0
5354,5.354,-0.0065
5355,5.355,-0.035
5356,5.356,-0.029
5357,5.357,0.0265
5358,5.3580000000000005,0.025
5359,5.359,0.005
5360,5.36,0.0045
5361,5.361,-0.0055
5362,5.362,0.0
5363,5.363,-0.003
5364,5.364,0.014
5365,5.365,-0.0025
5366,5.3660000000000005,-0.0355
5367,5.367,-0.027
5368,5.368,-0.016
5369,5.369,-0.015
5370,5.37,-0.0195
5371,5.371,-0.0055
5372,5.372,-0.016
5373,5.373,-0.042
5374,5.3740000000000006,-0.061
5375,5.375,-0.047
5376,5.376,-0.032
5377,5.377,-0.0585
5378,5.378,-0.0585
5379,5.3790000000000004,-0.036
5380,5.38,-0.0265
5381,5.381,-0.0315
5382,5.382,-0.047
5383,5.383,-0.052
5384,5.384,-0.0475
5385,5.385,-0.0565
5386,5.386,-0.06
5387,5.3870000000000005,-0.0635
5388,5.388,-0.064
5389,5.389,-0.068
5390,5.39,-0.066
5391,5.391,-0.069
5392,5.392,-0.0765
5393,5.393,-0.0725
5394,5.394,-0.0815
5395,5.3950000000000005,-0.069
5396,5.396,-0.0695
5397,5.397,-0.08
5398,5.398,-0.0595
5399,5.399,-0.0645
5400,5.4,-0.086
5401,5.401,-0.0535
5402,5.402,-0.033
5403,5.4030000000000005,-0.0565
5404,5.404,-0.064
5405,5.405,-0.077
5406,5.406,-0.0735
5407,5.407,-0.077
5408,5.408,-0.0865
5409,5.409,-0.0855
5410,5.41,-0.0945
5411,5.4110000000000005,-0.0835
5412,5.412,-0.0595
5413,5.413,-0.067
5414,5.414,-0.087
5415,5.415,-0.0905
5416,5.416,-0.105
5417,5.417,-0.1005
5418,5.418,-0.102
5419,5.4190000000000005,-0.0915
5420,5.42,-0.074
5421,5.421,-0.078
5422,5.422,-0.1085
5423,5.423,-0.1315
5424,5.424,-0.094
5425,5.425,-0.092
5426,5.426,-0.0965
5427,5.4270000000000005,-0.0995
5428,5.428,-0.114
5429,5.429,-0.132
5430,5.43,-0.149
5431,5.431,-0.1185
5432,5.432,-0.0975
5433,5.433,-0.1
5434,5.434,-0.11
5435,5.4350000000000005,-0.112
5436,5.436,-0.109
5437,5.437,-0.111
5438,5.438,-0.103
5439,5.439,-0.1005
5440,5.44,-0.0995
5441,5.441,-0.0945
5442,5.442,-0.1035
5443,5.4430000000000005,-0.1085
5444,5.444,-0.097
5445,5.445,-0.111
5446,5.446,-0.1165
5447,5.447,-0.114
5448,5.448,-0.1395
5449,5.449,-0.14
5450,5.45,-0.1215
5451,5.4510000000000005,-0.105
5452,5.452,-0.1015
5453,5.453,-0.117
5454,5.454,-0.1325
5455,5.455,-0.1255
5456,5.456,-0.134
5457,5.457,-0.118
5458,5.458,-0.084
5459,5.4590000000000005,-0.095
5460,5.46,-0.0955
5461,5.461,-0.097
5462,5.462,-0.1035
5463,5.463,-0.1235
5464,5.464,-0.1165
5465,5.465,-0.0975
5466,5.466,-0.0955
5467,5.4670000000000005,-0.062
5468,5.468,-0.0705
5469,5.469,-0.1225
5470,5.47,-0.1355
5471,5.471,-0.1315
5472,5.472,-0.1205
5473,5.473,-0.1085
5474,5.474,-0.1035
5475,5.4750000000000005,-0.099
5476,5.476,-0.11
5477,5.477,-0.107
5478,5.478,-0.101
5479,5.479,-0.0945
5480,5.48,-0.095
5481,5.481,-0.1
5482,5.482,-0.091
5483,5.4830000000000005,-0.088
5484,5.484,-0.092
5485,5.485,-0.099
5486,5.486,-0.0985
5487,5.487,-0.0895
5488,5.488,-0.0935
5489,5.489,-0.092
5490,5.49,-0.089
5491,5.4910000000000005,-0.1
5492,5.492,-0.096
5493,5.493,-0.0945
5494,5.494,-0.106
5495,5.495,-0.108
5496,5.496,-0.0865
5497,5.497,-0.084
5498,5.498,-0.083
5499,5.4990000000000006,-0.0735
5500,5.5,-0.071
5501,5.501,-0.079
5502,5.502,-0.1055
5503,5.503,-0.098
5504,5.5040000000000004,-0.0975
5505,5.505,-0.085
5506,5.506,-0.0775
5507,5.507,-0.101
5508,5.508,-0.095
5509,5.509,-0.085
5510,5.51,-0.0805
5511,5.511,-0.09
5512,5.5120000000000005,-0.087
5513,5.513,-0.081
5514,5.514,-0.0735
5515,5.515,-0.0905
5516,5.516,-0.0935
5517,5.517,-0.063
5518,5.518,-0.0845
5519,5.519,-0.078
5520,5.5200000000000005,-0.0745
5521,5.521,-0.0865
5522,5.522,-0.0895
5523,5.523,-0.0785
5524,5.524,-0.057
5525,5.525,-0.0795
5526,5.526,-0.079
5527,5.527,-0.071
5528,5.5280000000000005,-0.0795
5529,5.529,-0.083
5530,5.53,-0.0775
5531,5.531,-0.08
5532,5.532,-0.086
5533,5.533,-0.0825
5534,5.534,-0.0825
5535,5.535,-0.071
5536,5.5360000000000005,-0.0635
5537,5.537,-0.063
5538,5.538,-0.0645
5539,5.539,-0.0665
5540,5.54,-0.0625
5541,5.541,-0.063
5542,5.542,-0.0695
5543,5.543,-0.069
5544,5.5440000000000005,-0.066
5545,5.545,-0.074
5546,5.546,-0.078
5547,5.547,-0.0785
5548,5.548,-0.0805
5549,5.549,-0.084
5550,5.55,-0.086
5551,5.551,-0.0865
5552,5.5520000000000005,-0.09
5553,5.553,-0.0885
5554,5.554,-0.0845
5555,5.555,-0.08
5556,5.556,-0.0805
5557,5.557,-0.0795
5558,5.558,-0.0745
5559,5.559,-0.0715
5560,5.5600000000000005,-0.0605
5561,5.561,-0.0545
5562,5.562,-0.0865
5563,5.563,-0.0995
5564,5.564,-0.082
5565,5.565,-0.0845
5566,5.566,-0.0865
5567,5.567,-0.0975
5568,5.5680000000000005,-0.1315
5569,5.569,-0.119
5570,5.57,-0.0785
5571,5.571,-0.0795
5572,5.572,-0.095
5573,5.573,-0.0935
5574,5.574,-0.0605
5575,5.575,-0.0725
5576,5.5760000000000005,-0.103
5577,5.577,-0.095
5578,5.578,-0.101
5579,5.579,-0.081
5580,5.58,-0.045
5581,5.581,-0.054
5582,5.582,-0.054
5583,5.583,-0.0455
5584,5.5840000000000005,-0.094
5585,5.585,-0.109
5586,5.586,-0.0945
5587,5.587,-0.098
5588,5.588,-0.098
5589,5.589,-0.101
5590,5.59,-0.0935
5591,5.591,-0.0985
5592,5.5920000000000005,-0.1015
5593,5.593,-0.095
5594,5.594,-0.087
5595,5.595,-0.0935
5596,5.596,-0.097
5597,5.597,-0.0765
5598,5.598,-0.082
5599,5.599,-0.0805
5600,5.6000000000000005,-0.078
5601,5.601,-0.077
5602,5.602,-0.068
5603,5.603,-0.0765
5604,5.604,-0.076
5605,5.605,-0.0755
5606,5.606,-0.078
5607,5.607,-0.079
5608,5.6080000000000005,-0.081
5609,5.609,-0.081
5610,5.61,-0.085
5611,5.611,-0.089
5612,5.612,-0.0855
5613,5.613,-0.092
5614,5.614,-0.0925
5615,5.615,-0.0885
5616,5.6160000000000005,-0.093
5617,5.617,-0.0905
5618,5.618,-0.086
5619,5.619,-0.078
5620,5.62,-0.0825
5621,5.621,-0.1055
5622,5.622,-0.127
5623,5.623,-0.105
5624,5.6240000000000006,-0.069
5625,5.625,-0.078
5626,5.626,-0.095
5627,5.627,-0.0995
5628,5.628,-0.104
5629,5.6290000000000004,-0.0855
5630,5.63,-0.0805
5631,5.631,-0.1
5632,5.632,-0.0995
5633,5.633,-0.101
5634,5.634,-0.088
5635,5.635,-0.076
5636,5.636,-0.079
5637,5.6370000000000005,-0.0805
5638,5.638,-0.0675
5639,5.639,-0.071
5640,5.64,-0.0725
5641,5.641,-0.0595
5642,5.642,-0.073
5643,5.643,-0.0455
5644,5.644,-0.041
5645,5.6450000000000005,-0.066
5646,5.646,-0.0575
5647,5.647,-0.053
5648,5.648,-0.0335
5649,5.649,-0.0285
5650,5.65,-0.049
5651,5.651,-0.0685
5652,5.652,-0.0455
5653,5.6530000000000005,-0.0215
5654,5.654,-0.048
5655,5.655,-0.0395
5656,5.656,-0.051
5657,5.657,-0.059
5658,5.658,-0.0375
5659,5.659,-0.041
5660,5.66,-0.043
5661,5.6610000000000005,-0.0315
5662,5.662,-0.022
5663,5.663,-0.0455
5664,5.664,-0.05
5665,5.665,-0.0645
5666,5.666,-0.085
5667,5.667,-0.08
5668,5.668,-0.0855
5669,5.6690000000000005,-0.0845
5670,5.67,-0.0745
5671,5.671,-0.0695
5672,5.672,-0.072
5673,5.673,-0.072
5674,5.674,-0.054
5675,5.675,-0.0495
5676,5.676,-0.0175
5677,5.6770000000000005,0.0075
5678,5.678,-0.0175
5679,5.679,-0.0215
5680,5.68,-0.041
5681,5.681,-0.042
5682,5.682,-0.044
5683,5.683,-0.0475
5684,5.684,-0.0485
5685,5.6850000000000005,-0.061
5686,5.686,-0.0435
5687,5.687,-0.0585
5688,5.688,-0.0875
5689,5.689,-0.0975
5690,5.69,-0.094
5691,5.691,-0.1185
5692,5.692,-0.141
5693,5.6930000000000005,-0.1275
5694,5.694,-0.1295
5695,5.695,-0.129
5696,5.696,-0.125
5697,5.697,-0.123
5698,5.698,-0.1015
5699,5.699,-0.083
5700,5.7,-0.096
5701,5.7010000000000005,-0.109
5702,5.702,-0.11
5703,5.703,-0.1025
5704,5.704,-0.099
5705,5.705,-0.098
5706,5.706,-0.093
5707,5.707,-0.123
5708,5.708,-0.1455
5709,5.7090000000000005,-0.1505
5710,5.71,-0.1425
5711,5.711,-0.1295
5712,5.712,-0.129
5713,5.713,-0.1275
5714,5.714,-0.1385
5715,5.715,-0.1335
5716,5.716,-0.131
5717,5.7170000000000005,-0.1185
5718,5.718,-0.107
5719,5.719,-0.122
5720,5.72,-0.1
5721,5.721,-0.107
5722,5.722,-0.129
5723,5.723,-0.1185
5724,5.724,-0.1155
5725,5.7250000000000005,-0.1175
5726,5.726,-0.1275
5727,5.727,-0.122
5728,5.728,-0.1205
5729,5.729,-0.118
5730,5.73,-0.111
5731,5.731,-0.1135
5732,5.732,-0.1055
5733,5.7330000000000005,-0.1095
5734,5.734,-0.128
5735,5.735,-0.135
5736,5.736,-0.1355
5737,5.737,-0.12
5738,5.738,-0.13
5739,5.739,-0.1245
5740,5.74,-0.1155
5741,5.7410000000000005,-0.1375
5742,5.742,-0.105
5743,5.743,-0.111
5744,5.744,-0.1135
5745,5.745,-0.1025
5746,5.746,-0.13
5747,5.747,-0.125
5748,5.748,-0.132
5749,5.7490000000000006,-0.1525
5750,5.75,-0.1485
5751,5.751,-0.131
5752,5.752,-0.128
5753,5.753,-0.1395
5754,5.7540000000000004,-0.138
5755,5.755,-0.1385
5756,5.756,-0.1505
5757,5.757000000000001,-0.1515
5758,5.758,-0.164
5759,5.759,-0.178
5760,5.76,-0.1975
5761,5.761,-0.2125
5762,5.7620000000000005,-0.2065
5763,5.763,-0.2105
5764,5.764,-0.226
5765,5.765,-0.242
5766,5.766,-0.2215
5767,5.767,-0.2325
5768,5.768,-0.289
5769,5.769,-0.311
